# time(us)	tip(nm)	Fts(nN)	Xb(nm)
2.608696032510011719e+04	-2.801875968880677448e+01	-2.231995086530611308e-02	-3.168442112723663584e+01
2.608696379226604404e+04	-2.800713328580939532e+01	-2.219298087401568031e-02	-3.168382686975987284e+01
2.608696725943197453e+04	-2.799557537273429730e+01	-2.206785697557394135e-02	-3.168323361806608318e+01
2.608697072659790501e+04	-2.798408647757587175e+01	-2.194455360582788991e-02	-3.168264136736526382e+01
2.608697419376383550e+04	-2.797266712516587717e+01	-2.182304568815007090e-02	-3.168205011291302142e+01
2.608697766092976235e+04	-2.796131783713004992e+01	-2.170330862354922369e-02	-3.168145985000967357e+01
2.608698112809569284e+04	-2.795003913184490330e+01	-2.158531828101312861e-02	-3.168087057399984019e+01
2.608698459526162333e+04	-2.793883152439489592e+01	-2.146905098808729595e-02	-3.168028228027166904e+01
2.608698806242755018e+04	-2.792769552652984544e+01	-2.135448352167763214e-02	-3.167969496425631704e+01
2.608699152959348066e+04	-2.791663164662266183e+01	-2.124159309907334980e-02	-3.167910862142732142e+01
2.608699499675941115e+04	-2.790564038962742544e+01	-2.113035736918538604e-02	-3.167852324729995672e+01
2.608699846392533800e+04	-2.789472225703773489e+01	-2.102075440399246362e-02	-3.167793883743067695e+01
2.608700193109126849e+04	-2.788387774684543174e+01	-2.091276269019037848e-02	-3.167735538741656853e+01
2.608700539825719898e+04	-2.787310735349964119e+01	-2.080636112104129742e-02	-3.167677289289470011e+01
2.608700886542312583e+04	-2.786241156786618234e+01	-2.070152898841321615e-02	-3.167619134954171400e+01
2.608701233258905631e+04	-2.785179087718730884e+01	-2.059824597501250937e-02	-3.167561075307305174e+01
2.608701579975498680e+04	-2.784124576504183679e+01	-2.049649214679465092e-02	-3.167503109924261295e+01
2.608701926692091365e+04	-2.783077671130563857e+01	-2.039624794555746842e-02	-3.167445238384215500e+01
2.608702273408684414e+04	-2.782038419211249902e+01	-2.029749418170799513e-02	-3.167387460270072452e+01
2.608702620125277463e+04	-2.781006867981539088e+01	-2.020021202719901252e-02	-3.167329775168419559e+01
2.608702966841870511e+04	-2.779983064294813033e+01	-2.010438300863170297e-02	-3.167272182669474034e+01
2.608703313558463196e+04	-2.778967054618742694e+01	-2.000998900051949650e-02	-3.167214682367035650e+01
2.608703660275056245e+04	-2.777958885031538827e+01	-1.991701221871119282e-02	-3.167157273858431665e+01
2.608704006991649294e+04	-2.776958601218234435e+01	-1.982543521396577801e-02	-3.167099956744475264e+01
2.608704353708241979e+04	-2.775966248467025466e+01	-1.973524086567917876e-02	-3.167042730629410840e+01
2.608704700424835028e+04	-2.774981871665637811e+01	-1.964641237575587632e-02	-3.166985595120874919e+01
2.608705047141428076e+04	-2.774005515297751501e+01	-1.955893326262430135e-02	-3.166928549829845707e+01
2.608705393858020761e+04	-2.773037223439462196e+01	-1.947278735539118705e-02	-3.166871594370597620e+01
2.608705740574613810e+04	-2.772077039755791006e+01	-1.938795878813205989e-02	-3.166814728360657583e+01
2.608706087291206859e+04	-2.771125007497241555e+01	-1.930443199431412099e-02	-3.166757951420759909e+01
2.608706434007799544e+04	-2.770181169496398965e+01	-1.922219170134860378e-02	-3.166701263174807579e+01
2.608706780724392593e+04	-2.769245568164582139e+01	-1.914122292527021055e-02	-3.166644663249817881e+01
2.608707127440985641e+04	-2.768318245488539731e+01	-1.906151096553847929e-02	-3.166588151275898966e+01
2.608707474157578690e+04	-2.767399243027198708e+01	-1.898304139996096970e-02	-3.166531726886193354e+01
2.608707820874171375e+04	-2.766488601908458733e+01	-1.890580007973384491e-02	-3.166475389716839928e+01
2.608708167590764424e+04	-2.765586362826039490e+01	-1.882977312459590061e-02	-3.166419139406945504e+01
2.608708514307357473e+04	-2.764692566036375609e+01	-1.875494691809690556e-02	-3.166362975598529061e+01
2.608708861023950158e+04	-2.763807251355565597e+01	-1.868130810297365108e-02	-3.166306897936493669e+01
2.608709207740543206e+04	-2.762930458156369085e+01	-1.860884357663398353e-02	-3.166250906068582438e+01
2.608709554457136255e+04	-2.762062225365261980e+01	-1.853754048674410848e-02	-3.166194999645349384e+01
2.608709901173728940e+04	-2.761202591459539235e+01	-1.846738622691974571e-02	-3.166139178320114311e+01
2.608710247890321989e+04	-2.760351594464471603e+01	-1.839836843251565351e-02	-3.166083441748930127e+01
2.608710594606915038e+04	-2.759509271950519249e+01	-1.833047497651260974e-02	-3.166027789590549091e+01
2.608710941323507723e+04	-2.758675661030596871e+01	-1.826369396550094754e-02	-3.165972221506381246e+01
2.608711288040100771e+04	-2.757850798357393884e+01	-1.819801373575513637e-02	-3.165916737160467420e+01
2.608711634756693820e+04	-2.757034720120755011e+01	-1.813342284940152802e-02	-3.165861336219437661e+01
2.608711981473286505e+04	-2.756227462045109178e+01	-1.806991009067299495e-02	-3.165806018352487783e+01
2.608712328189879554e+04	-2.755429059386957746e+01	-1.800746446225236219e-02	-3.165750783231335674e+01
2.608712674906472603e+04	-2.754639546932424210e+01	-1.794607518169923782e-02	-3.165695630530198912e+01
2.608713021623065652e+04	-2.753858958994851491e+01	-1.788573167796222302e-02	-3.165640559925746800e+01
2.608713368339658336e+04	-2.753087329412466389e+01	-1.782642358796891757e-02	-3.165585571097094686e+01
2.608713715056251385e+04	-2.752324691546095892e+01	-1.776814075329959802e-02	-3.165530663725748184e+01
2.608714061772844434e+04	-2.751571078276944249e+01	-1.771087321693604749e-02	-3.165475837495583278e+01
2.608714408489437119e+04	-2.750826522004427943e+01	-1.765461122008724418e-02	-3.165421092092818256e+01
2.608714755206030168e+04	-2.750091054644072841e+01	-1.759934519908976439e-02	-3.165366427205980671e+01
2.608715101922623217e+04	-2.749364707625464277e+01	-1.754506578238104741e-02	-3.165311842525880337e+01
2.608715448639215901e+04	-2.748647511890261086e+01	-1.749176378754422126e-02	-3.165257337745577360e+01
2.608715795355808950e+04	-2.747939497890274652e+01	-1.743943021842254623e-02	-3.165202912560357973e+01
2.608716142072401999e+04	-2.747240695585595560e+01	-1.738805626230241833e-02	-3.165148566667706476e+01
2.608716488788994684e+04	-2.746551134442793440e+01	-1.733763328716382557e-02	-3.165094299767272545e+01
2.608716835505587733e+04	-2.745870843433170450e+01	-1.728815283899572466e-02	-3.165040111560853120e+01
2.608717182222180782e+04	-2.745199851031080485e+01	-1.723960663917637609e-02	-3.164986001752359357e+01
2.608717528938773830e+04	-2.744538185212302395e+01	-1.719198658191671211e-02	-3.164931970047790344e+01
2.608717875655366515e+04	-2.743885873452486024e+01	-1.714528473176455889e-02	-3.164878016155212848e+01
2.608718222371959564e+04	-2.743242942725649769e+01	-1.709949332117073964e-02	-3.164824139784733248e+01
2.608718569088552613e+04	-2.742609419502744572e+01	-1.705460474811351310e-02	-3.164770340648470537e+01
2.608718915805145298e+04	-2.741985329750281153e+01	-1.701061157378168029e-02	-3.164716618460533226e+01
2.608719262521738347e+04	-2.741370698929016925e+01	-1.696750652031421211e-02	-3.164662972936999452e+01
2.608719609238331395e+04	-2.740765551992708637e+01	-1.692528246859679314e-02	-3.164609403795884290e+01
2.608719955954924080e+04	-2.740169913386921863e+01	-1.688393245611177762e-02	-3.164555910757128387e+01
2.608720302671517129e+04	-2.739583807047908337e+01	-1.684344967484371555e-02	-3.164502493542561723e+01
2.608720649388110178e+04	-2.739007256401545831e+01	-1.680382746923622314e-02	-3.164449151875890109e+01
2.608720996104702863e+04	-2.738440284362336996e+01	-1.676505933420108924e-02	-3.164395885482674942e+01
2.608721342821295912e+04	-2.737882913332477486e+01	-1.672713891317959001e-02	-3.164342694090299446e+01
2.608721689537888960e+04	-2.737335165200978793e+01	-1.669005999625157097e-02	-3.164289577427959088e+01
2.608722036254482009e+04	-2.736797061342861426e+01	-1.665381651829550211e-02	-3.164236535226631730e+01
2.608722382971074694e+04	-2.736268622618408131e+01	-1.661840255719529771e-02	-3.164183567219068749e+01
2.608722729687667743e+04	-2.735749869372477150e+01	-1.658381233209642314e-02	-3.164130673139754180e+01
2.608723076404260792e+04	-2.735240821433886538e+01	-1.655004020170591783e-02	-3.164077852724907913e+01
2.608723423120853477e+04	-2.734741498114851410e+01	-1.651708066264085881e-02	-3.164025105712449815e+01
2.608723769837446525e+04	-2.734251918210492249e+01	-1.648492834782042116e-02	-3.163972431841980537e+01
2.608724116554039574e+04	-2.733772099998399696e+01	-1.645357802490191729e-02	-3.163919830854770510e+01
2.608724463270632259e+04	-2.733302061238268621e+01	-1.642302459476118609e-02	-3.163867302493737199e+01
2.608724809987225308e+04	-2.732841819171590458e+01	-1.639326309001584714e-02	-3.163814846503422018e+01
2.608725156703818357e+04	-2.732391390521406294e+01	-1.636428867358986905e-02	-3.163762462629979666e+01
2.608725503420411042e+04	-2.731950791492128516e+01	-1.633609663732066286e-02	-3.163710150621150419e+01
2.608725850137004090e+04	-2.731520037769418607e+01	-1.630868240060599772e-02	-3.163657910226254089e+01
2.608726196853597139e+04	-2.731099144520133137e+01	-1.628204150909268871e-02	-3.163605741196158760e+01
2.608726543570189824e+04	-2.730688126392323056e+01	-1.625616963340330637e-02	-3.163553643283272265e+01
2.608726890286782873e+04	-2.730286997515305814e+01	-1.623106256790271887e-02	-3.163501616241524772e+01
2.608727237003375922e+04	-2.729895771499788992e+01	-1.620671622950366556e-02	-3.163449659826350313e+01
2.608727583719968970e+04	-2.729514461438059314e+01	-1.618312665650983861e-02	-3.163397773794662982e+01
2.608727930436561655e+04	-2.729143079904237013e+01	-1.616029000749564376e-02	-3.163345957904859063e+01
2.608728277153154704e+04	-2.728781638954580657e+01	-1.613820256022530444e-02	-3.163294211916777954e+01
2.608728623869747753e+04	-2.728430150127864096e+01	-1.611686071060573072e-02	-3.163242535591703941e+01
2.608728970586340438e+04	-2.728088624445805266e+01	-1.609626097167737163e-02	-3.163190928692342041e+01
2.608729317302933487e+04	-2.727757072413557182e+01	-1.607639997263988346e-02	-3.163139390982807697e+01
2.608729664019526535e+04	-2.727435504020263224e+01	-1.605727445791373803e-02	-3.163087922228600846e+01
2.608730010736119220e+04	-2.727123928739664294e+01	-1.603888128623509948e-02	-3.163036522196608047e+01
2.608730357452712269e+04	-2.726822355530770636e+01	-1.602121742978705049e-02	-3.162985190655071932e+01
2.608730704169305318e+04	-2.726530792838589434e+01	-1.600427997336358044e-02	-3.162933927373584098e+01
2.608731050885898003e+04	-2.726249248594911023e+01	-1.598806611356751173e-02	-3.162882732123068763e+01
2.608731397602491052e+04	-2.725977730219154083e+01	-1.597257315804164607e-02	-3.162831604675773178e+01
2.608731744319084100e+04	-2.725716244619268025e+01	-1.595779852473372395e-02	-3.162780544805245597e+01
2.608732091035677149e+04	-2.725464798192692228e+01	-1.594373974119276186e-02	-3.162729552286330659e+01
2.608732437752269834e+04	-2.725223396827372113e+01	-1.593039444389921303e-02	-3.162678626895146294e+01
2.608732784468862883e+04	-2.724992045902830640e+01	-1.591776037762585722e-02	-3.162627768409080886e+01
2.608733131185455932e+04	-2.724770750291296650e+01	-1.590583539483221912e-02	-3.162576976606763779e+01
2.608733477902048617e+04	-2.724559514358887924e+01	-1.589461745508825852e-02	-3.162526251268079136e+01
2.608733824618641665e+04	-2.724358341966849650e+01	-1.588410462453198474e-02	-3.162475592174127925e+01
2.608734171335234714e+04	-2.724167236472846554e+01	-1.587429507535696033e-02	-3.162424999107222590e+01
2.608734518051827399e+04	-2.723986200732307239e+01	-1.586518708533019018e-02	-3.162374471850883140e+01
2.608734864768420448e+04	-2.723815237099828934e+01	-1.585677903734230426e-02	-3.162324010189813706e+01
2.608735211485013497e+04	-2.723654347430625222e+01	-1.584906941898708843e-02	-3.162273613909898273e+01
2.608735558201606182e+04	-2.723503533082032391e+01	-1.584205682217191408e-02	-3.162223282798184343e+01
2.608735904918199230e+04	-2.723362794915065521e+01	-1.583573994275832425e-02	-3.162173016642876178e+01
2.608736251634792279e+04	-2.723232133296026092e+01	-1.583011758023346663e-02	-3.162122815233314199e+01
2.608736598351385328e+04	-2.723111548098161805e+01	-1.582518863741019105e-02	-3.162072678359975697e+01
2.608736945067978013e+04	-2.723001038703371890e+01	-1.582095212015799043e-02	-3.162022605814459553e+01
2.608737291784571062e+04	-2.722900604003965697e+01	-1.581740713716478855e-02	-3.161972597389463502e+01
2.608737638501164110e+04	-2.722810242404471737e+01	-1.581455289972592826e-02	-3.161922652878789819e+01
2.608737985217756795e+04	-2.722729951823487227e+01	-1.581238872156500233e-02	-3.161872772077327909e+01
2.608738331934349844e+04	-2.722659729695582698e+01	-1.581091401868377211e-02	-3.161822954781040096e+01
2.608738678650942893e+04	-2.722599572973250659e+01	-1.581012830924110463e-02	-3.161773200786960558e+01
2.608739025367535578e+04	-2.722549478128901512e+01	-1.581003121346256923e-02	-3.161723509893174366e+01
2.608739372084128627e+04	-2.722509441156902099e+01	-1.581062245357878204e-02	-3.161673881898814997e+01
2.608739718800721676e+04	-2.722479457575662565e+01	-1.581190185379345928e-02	-3.161624316604052609e+01
2.608740065517314360e+04	-2.722459522429764789e+01	-1.581386934028183172e-02	-3.161574813810078410e+01
2.608740412233907409e+04	-2.722449630292138067e+01	-1.581652494121756070e-02	-3.161525373319106436e+01
2.608740758950500458e+04	-2.722449775266272454e+01	-1.581986878683025802e-02	-3.161475994934354361e+01
2.608741105667093143e+04	-2.722459950988477573e+01	-1.582390110949253095e-02	-3.161426678460035333e+01
2.608741452383686192e+04	-2.722480150630181939e+01	-1.582862224383623992e-02	-3.161377423701359035e+01
2.608741799100279241e+04	-2.722510366900275613e+01	-1.583403262690033855e-02	-3.161328230464505040e+01
2.608742145816872289e+04	-2.722550592047484841e+01	-1.584013279830668794e-02	-3.161279098556628497e+01
2.608742492533464974e+04	-2.722600817862796418e+01	-1.584692340046769260e-02	-3.161230027785839880e+01
2.608742839250058023e+04	-2.722661035681910136e+01	-1.585440517882273290e-02	-3.161181017961211737e+01
2.608743185966651072e+04	-2.722731236387739528e+01	-1.586257898210714778e-02	-3.161132068892749203e+01
2.608743532683243757e+04	-2.722811410412939637e+01	-1.587144576264908763e-02	-3.161083180391402081e+01
2.608743879399836806e+04	-2.722901547742475614e+01	-1.588100657669965984e-02	-3.161034352269044234e+01
2.608744226116429854e+04	-2.723001637916229356e+01	-1.589126258479270012e-02	-3.160985584338465770e+01
2.608744572833022539e+04	-2.723111670031630638e+01	-1.590221505213614689e-02	-3.160936876413365582e+01
2.608744919549615588e+04	-2.723231632746336928e+01	-1.591386534903379418e-02	-3.160888228308354897e+01
2.608745266266208637e+04	-2.723361514280932028e+01	-1.592621495134141640e-02	-3.160839639838927084e+01
2.608745612982801322e+04	-2.723501302421662018e+01	-1.593926544095071104e-02	-3.160791110821473993e+01
2.608745959699394371e+04	-2.723650984523210639e+01	-1.595301850630997248e-02	-3.160742641073255754e+01
2.608746306415987419e+04	-2.723810547511486391e+01	-1.596747594297318398e-02	-3.160694230412409667e+01
2.608746653132580468e+04	-2.723979977886460091e+01	-1.598263965418467505e-02	-3.160645878657933139e+01
2.608746999849173153e+04	-2.724159261725015213e+01	-1.599851165149484070e-02	-3.160597585629685469e+01
2.608747346565766202e+04	-2.724348384683835889e+01	-1.601509405541121436e-02	-3.160549351148369723e+01
2.608747693282359251e+04	-2.724547332002316935e+01	-1.603238909608154655e-02	-3.160501175035535582e+01
2.608748039998951936e+04	-2.724756088505503726e+01	-1.605039911401236544e-02	-3.160453057113564057e+01
2.608748386715544984e+04	-2.724974638607053024e+01	-1.606912656082136806e-02	-3.160404997205663236e+01
2.608748733432138033e+04	-2.725202966312221520e+01	-1.608857400002471072e-02	-3.160356995135863656e+01
2.608749080148730718e+04	-2.725441055220879605e+01	-1.610874410785991320e-02	-3.160309050729006231e+01
2.608749426865323767e+04	-2.725688888530543608e+01	-1.612963967414418609e-02	-3.160261163810747220e+01
2.608749773581916816e+04	-2.725946449039432551e+01	-1.615126360317008583e-02	-3.160213334207534785e+01
2.608750120298509501e+04	-2.726213719149545511e+01	-1.617361891463627369e-02	-3.160165561746616092e+01
2.608750467015102549e+04	-2.726490680869761363e+01	-1.619670874461684798e-02	-3.160117846256024876e+01
2.608750813731695598e+04	-2.726777315818950598e+01	-1.622053634656809781e-02	-3.160070187564572208e+01
2.608751160448288283e+04	-2.727073605229119835e+01	-1.624510509237289679e-02	-3.160022585501846848e+01
2.608751507164881332e+04	-2.727379529948555259e+01	-1.627041847342494338e-02	-3.159975039898208848e+01
2.608751853881474381e+04	-2.727695070444998038e+01	-1.629648010175174452e-02	-3.159927550584777478e+01
2.608752200598067429e+04	-2.728020206808831460e+01	-1.632329371117855962e-02	-3.159880117393424825e+01
2.608752547314660114e+04	-2.728354918756276604e+01	-1.635086315853133410e-02	-3.159832740156779707e+01
2.608752894031253163e+04	-2.728699185632610735e+01	-1.637919242488272004e-02	-3.159785418708213811e+01
2.608753240747846212e+04	-2.729052986415394955e+01	-1.640828561683960185e-02	-3.159738152881833173e+01
2.608753587464438897e+04	-2.729416299717712846e+01	-1.643814696787237670e-02	-3.159690942512481371e+01
2.608753934181031946e+04	-2.729789103791423699e+01	-1.646878083968913650e-02	-3.159643787435724960e+01
2.608754280897624994e+04	-2.730171376530425320e+01	-1.650019172365269765e-02	-3.159596687487857025e+01
2.608754627614217679e+04	-2.730563095473923951e+01	-1.653238424224371533e-02	-3.159549642505881906e+01
2.608754974330810728e+04	-2.730964237809719108e+01	-1.656536315056886255e-02	-3.159502652327515193e+01
2.608755321047403777e+04	-2.731374780377488065e+01	-1.659913333791510764e-02	-3.159455716791182667e+01
2.608755667763996462e+04	-2.731794699672085613e+01	-1.663369982935336902e-02	-3.159408835736001109e+01
2.608756014480589511e+04	-2.732223971846842758e+01	-1.666906778738769246e-02	-3.159362009001788607e+01
2.608756361197182559e+04	-2.732662572716876426e+01	-1.670524251365584217e-02	-3.159315236429050699e+01
2.608756707913775608e+04	-2.733110477762399171e+01	-1.674222945067921700e-02	-3.159268517858975045e+01
2.608757054630368293e+04	-2.733567662132037768e+01	-1.678003418366402419e-02	-3.159221853133428581e+01
2.608757401346961342e+04	-2.734034100646148957e+01	-1.681866244235384958e-02	-3.159175242094956815e+01
2.608757748063554391e+04	-2.734509767800140523e+01	-1.685812010293703117e-02	-3.159128684586771385e+01
2.608758094780147076e+04	-2.734994637767792725e+01	-1.689841319000695910e-02	-3.159082180452743671e+01
2.608758441496740124e+04	-2.735488684404577953e+01	-1.693954787857734207e-02	-3.159035729537412607e+01
2.608758788213333173e+04	-2.735991881250983226e+01	-1.698153049615550372e-02	-3.158989331685965496e+01
2.608759134929925858e+04	-2.736504201535826297e+01	-1.702436752487203331e-02	-3.158942986744241210e+01
2.608759481646518907e+04	-2.737025618179576369e+01	-1.706806560366932665e-02	-3.158896694558726992e+01
2.608759828363111956e+04	-2.737556103797664520e+01	-1.711263153055137681e-02	-3.158850454976544953e+01
2.608760175079704641e+04	-2.738095630703792338e+01	-1.715807226489295123e-02	-3.158804267845461666e+01
2.608760521796297689e+04	-2.738644170913238796e+01	-1.720439492981382101e-02	-3.158758133013866143e+01
2.608760868512890738e+04	-2.739201696146159648e+01	-1.725160681461516618e-02	-3.158712050330777998e+01
2.608761215229483787e+04	-2.739768177830875118e+01	-1.729971537728204958e-02	-3.158666019645840706e+01
2.608761561946076472e+04	-2.740343587107159351e+01	-1.734872824705264299e-02	-3.158620040809321594e+01
2.608761908662669521e+04	-2.740927894829516376e+01	-1.739865322705718559e-02	-3.158574113672091954e+01
2.608762255379262569e+04	-2.741521071570445045e+01	-1.744949829702474586e-02	-3.158528238085638407e+01
2.608762602095855254e+04	-2.742123087623702204e+01	-1.750127161606303272e-02	-3.158482413902052599e+01
