# time(us)	tip(nm)	Fts(nN)	Xb(nm)
2.608696032510011719e+04	-3.253333082344649796e+01	-5.139705696070050872e-02	-3.488077072357327069e+01
2.608696379226604404e+04	-3.252551631767679652e+01	-5.110840355058508117e-02	-3.488013281276144539e+01
2.608696725943197453e+04	-3.251775066542000303e+01	-5.082407090551696593e-02	-3.487949595018646676e+01
2.608697072659790501e+04	-3.251003424363891980e+01	-5.054399971469319963e-02	-3.487886013101276461e+01
2.608697419376383550e+04	-3.250236742653387978e+01	-5.026813179893137307e-02	-3.487822535044924166e+01
2.608697766092976235e+04	-3.249475058550599726e+01	-4.999641008809787429e-02	-3.487759160374875478e+01
2.608698112809569284e+04	-3.248718408912078104e+01	-4.972877859907690046e-02	-3.487695888620751106e+01
2.608698459526162333e+04	-3.247966830307214536e+01	-4.946518241426405005e-02	-3.487632719316430752e+01
2.608698806242755018e+04	-3.247220359014683311e+01	-4.920556766055905057e-02	-3.487569652000016873e+01
2.608699152959348066e+04	-3.246479031018923678e+01	-4.894988148886386670e-02	-3.487506686213757945e+01
2.608699499675941115e+04	-3.245742882006664587e+01	-4.869807205406178480e-02	-3.487443821503990904e+01
2.608699846392533800e+04	-3.245011947363489213e+01	-4.845008849545879431e-02	-3.487381057421102071e+01
2.608700193109126849e+04	-3.244286262170446378e+01	-4.820588091770045686e-02	-3.487318393519446857e+01
2.608700539825719898e+04	-3.243565861200705314e+01	-4.796540037211991653e-02	-3.487255829357317083e+01
2.608700886542312583e+04	-3.242850778916248800e+01	-4.772859883853513424e-02	-3.487193364496870629e+01
2.608701233258905631e+04	-3.242141049464623848e+01	-4.749542920746629288e-02	-3.487130998504081703e+01
2.608701579975498680e+04	-3.241436706675725077e+01	-4.726584526276730175e-02	-3.487068730948701045e+01
2.608701926692091365e+04	-3.240737784058637061e+01	-4.703980166466890933e-02	-3.487006561404185589e+01
2.608702273408684414e+04	-3.240044314798512204e+01	-4.681725393320785439e-02	-3.486944489447661510e+01
2.608702620125277463e+04	-3.239356331753511142e+01	-4.659815843205370595e-02	-3.486882514659862409e+01
2.608702966841870511e+04	-3.238673867451773702e+01	-4.638247235269730984e-02	-3.486820636625092362e+01
2.608703313558463196e+04	-3.237996954088458068e+01	-4.617015369901750210e-02	-3.486758854931176188e+01
2.608703660275056245e+04	-3.237325623522817608e+01	-4.596116127220681996e-02	-3.486697169169395494e+01
2.608704006991649294e+04	-3.236659907275333836e+01	-4.575545465603101519e-02	-3.486635578934472335e+01
2.608704353708241979e+04	-3.235999836524898399e+01	-4.555299420245660647e-02	-3.486574083824486081e+01
2.608704700424835028e+04	-3.235345442106049774e+01	-4.535374101758404136e-02	-3.486512683440860627e+01
2.608705047141428076e+04	-3.234696754506257577e+01	-4.515765694792471530e-02	-3.486451377388297601e+01
2.608705393858020761e+04	-3.234053803863266552e+01	-4.496470456698557078e-02	-3.486390165274748654e+01
2.608705740574613810e+04	-3.233416619962489591e+01	-4.477484716216965921e-02	-3.486329046711358615e+01
2.608706087291206859e+04	-3.232785232234455464e+01	-4.458804872197540126e-02	-3.486268021312434229e+01
2.608706434007799544e+04	-3.232159669752312681e+01	-4.440427392349503150e-02	-3.486207088695390155e+01
2.608706780724392593e+04	-3.231539961229390201e+01	-4.422348812019491482e-02	-3.486146248480721255e+01
2.608707127440985641e+04	-3.230926135016807876e+01	-4.404565732998717148e-02	-3.486085500291954276e+01
2.608707474157578690e+04	-3.230318219101150135e+01	-4.387074822357024673e-02	-3.486024843755608060e+01
2.608707820874171375e+04	-3.229716241102192242e+01	-4.369872811304102711e-02	-3.485964278501153757e+01
2.608708167590764424e+04	-3.229120228270686255e+01	-4.352956494076931637e-02	-3.485903804160979291e+01
2.608708514307357473e+04	-3.228530207486198123e+01	-4.336322726852855775e-02	-3.485843420370351708e+01
2.608708861023950158e+04	-3.227946205255017276e+01	-4.319968426687843810e-02	-3.485783126767376672e+01
2.608709207740543206e+04	-3.227368247708103155e+01	-4.303890570479664696e-02	-3.485722922992962225e+01
2.608709554457136255e+04	-3.226796360599114166e+01	-4.288086193954140923e-02	-3.485662808690782555e+01
2.608709901173728940e+04	-3.226230569302476425e+01	-4.272552390675705275e-02	-3.485602783507249569e+01
2.608710247890321989e+04	-3.225670898811521425e+01	-4.257286311080910046e-02	-3.485542847091457475e+01
2.608710594606915038e+04	-3.225117373736684812e+01	-4.242285161533349003e-02	-3.485482999095174250e+01
2.608710941323507723e+04	-3.224570018303759156e+01	-4.227546203401801733e-02	-3.485423239172794752e+01
2.608711288040100771e+04	-3.224028856352212102e+01	-4.213066752159241174e-02	-3.485363566981297367e+01
2.608711634756693820e+04	-3.223493911333567041e+01	-4.198844176502699449e-02	-3.485303982180228388e+01
2.608711981473286505e+04	-3.222965206309834230e+01	-4.184875897493479241e-02	-3.485244484431667900e+01
2.608712328189879554e+04	-3.222442763952017941e+01	-4.171159387718660627e-02	-3.485185073400178624e+01
2.608712674906472603e+04	-3.221926606538670512e+01	-4.157692170470400628e-02	-3.485125748752801655e+01
2.608713021623065652e+04	-3.221416755954525968e+01	-4.144471818946441483e-02	-3.485066510159001751e+01
2.608713368339658336e+04	-3.220913233689172728e+01	-4.131495955467508890e-02	-3.485007357290658092e+01
2.608713715056251385e+04	-3.220416060835813710e+01	-4.118762250715166107e-02	-3.484948289822012413e+01
2.608714061772844434e+04	-3.219925258090065512e+01	-4.106268422985864114e-02	-3.484889307429657634e+01
2.608714408489437119e+04	-3.219440845748835045e+01	-4.094012237463964810e-02	-3.484830409792498784e+01
2.608714755206030168e+04	-3.218962843709255139e+01	-4.081991505511577134e-02	-3.484771596591726706e+01
2.608715101922623217e+04	-3.218491271467682679e+01	-4.070204083975215853e-02	-3.484712867510790346e+01
2.608715448639215901e+04	-3.218026148118755714e+01	-4.058647874509542508e-02	-3.484654222235374732e+01
2.608715795355808950e+04	-3.217567492354520198e+01	-4.047320822916942312e-02	-3.484595660453359045e+01
2.608716142072401999e+04	-3.217115322463615001e+01	-4.036220918503449079e-02	-3.484537181854803833e+01
2.608716488788994684e+04	-3.216669656330524418e+01	-4.025346193450022453e-02	-3.484478786131917616e+01
2.608716835505587733e+04	-3.216230511434883965e+01	-4.014694722199193405e-02	-3.484420472979034855e+01
2.608717182222180782e+04	-3.215797904850864342e+01	-4.004264620857237583e-02	-3.484362242092582562e+01
2.608717528938773830e+04	-3.215371853246606548e+01	-3.994054046610030079e-02	-3.484304093171069638e+01
2.608717875655366515e+04	-3.214952372883724507e+01	-3.984061197154899203e-02	-3.484246025915042111e+01
2.608718222371959564e+04	-3.214539479616870210e+01	-3.974284310145028559e-02	-3.484188040027081001e+01
2.608718569088552613e+04	-3.214133188893358550e+01	-3.964721662649395989e-02	-3.484130135211751877e+01
2.608718915805145298e+04	-3.213733515752868897e+01	-3.955371570624904159e-02	-3.484072311175611247e+01
2.608719262521738347e+04	-3.213340474827186455e+01	-3.946232388403099478e-02	-3.484014567627159664e+01
2.608719609238331395e+04	-3.212954080340030316e+01	-3.937302508189628042e-02	-3.483956904276822542e+01
2.608719955954924080e+04	-3.212574346106923429e+01	-3.928580359576357844e-02	-3.483899320836936653e+01
2.608720302671517129e+04	-3.212201285535143569e+01	-3.920064409066565531e-02	-3.483841817021728104e+01
2.608720649388110178e+04	-3.211834911623719080e+01	-3.911753159612932351e-02	-3.483784392547275388e+01
2.608720996104702863e+04	-3.211475236963504187e+01	-3.903645150166888678e-02	-3.483727047131505827e+01
2.608721342821295912e+04	-3.211122273737300503e+01	-3.895738955241134088e-02	-3.483669780494157919e+01
2.608721689537888960e+04	-3.210776033720053846e+01	-3.888033184483236787e-02	-3.483612592356774940e+01
2.608722036254482009e+04	-3.210436528279101509e+01	-3.880526482261182492e-02	-3.483555482442674389e+01
2.608722382971074694e+04	-3.210103768374489164e+01	-3.873217527260590376e-02	-3.483498450476928809e+01
2.608722729687667743e+04	-3.209777764559342472e+01	-3.866105032092806426e-02	-3.483441496186352992e+01
2.608723076404260792e+04	-3.209458526980304072e+01	-3.859187742914583358e-02	-3.483384619299475560e+01
2.608723423120853477e+04	-3.209146065378033796e+01	-3.852464439058530393e-02	-3.483327819546521198e+01
2.608723769837446525e+04	-3.208840389087754374e+01	-3.845933932674035216e-02	-3.483271096659400001e+01
2.608724116554039574e+04	-3.208541507039880969e+01	-3.839595068379537957e-02	-3.483214450371676918e+01
2.608724463270632259e+04	-3.208249427760685535e+01	-3.833446722924629957e-02	-3.483157880418558250e+01
2.608724809987225308e+04	-3.207964159373039337e+01	-3.827487804862735044e-02	-3.483101386536872468e+01
2.608725156703818357e+04	-3.207685709597203072e+01	-3.821717254233879257e-02	-3.483044968465057423e+01
2.608725503420411042e+04	-3.207414085751684496e+01	-3.816134042257807168e-02	-3.482988625943130501e+01
2.608725850137004090e+04	-3.207149294754139390e+01	-3.810737171036441412e-02	-3.482932358712686494e+01
2.608726196853597139e+04	-3.206891343122350690e+01	-3.805525673266623582e-02	-3.482876166516868466e+01
2.608726543570189824e+04	-3.206640236975248115e+01	-3.800498611962283002e-02	-3.482820049100357807e+01
2.608726890286782873e+04	-3.206395982033989611e+01	-3.795655080186316477e-02	-3.482764006209348651e+01
2.608727237003375922e+04	-3.206158583623106040e+01	-3.790994200791414359e-02	-3.482708037591545747e+01
2.608727583719968970e+04	-3.205928046671688492e+01	-3.786515126170841850e-02	-3.482652142996132483e+01
2.608727930436561655e+04	-3.205704375714645948e+01	-3.782217038017926525e-02	-3.482596322173768044e+01
2.608728277153154704e+04	-3.205487574894002734e+01	-3.778099147094898802e-02	-3.482540574876561124e+01
2.608728623869747753e+04	-3.205277647960265597e+01	-3.774160693010673862e-02	-3.482484900858062815e+01
2.608728970586340438e+04	-3.205074598273828457e+01	-3.770400944007335636e-02	-3.482429299873246009e+01
2.608729317302933487e+04	-3.204878428806448198e+01	-3.766819196755907817e-02	-3.482373771678493313e+01
2.608729664019526535e+04	-3.204689142142757419e+01	-3.763414776160419611e-02	-3.482318316031579997e+01
2.608730010736119220e+04	-3.204506740481838989e+01	-3.760187035170854675e-02	-3.482262932691659074e+01
2.608730357452712269e+04	-3.204331225638848224e+01	-3.757135354604487082e-02	-3.482207621419254906e+01
2.608730704169305318e+04	-3.204162599046684790e+01	-3.754259142976180269e-02	-3.482152381976230515e+01
2.608731050885898003e+04	-3.204000861757723584e+01	-3.751557836336480434e-02	-3.482097214125796114e+01
2.608731397602491052e+04	-3.203846014445583279e+01	-3.749030898118607680e-02	-3.482042117632478551e+01
2.608731744319084100e+04	-3.203698057406949573e+01	-3.746677818993623954e-02	-3.481987092262115624e+01
2.608732091035677149e+04	-3.203556990563452445e+01	-3.744498116733586263e-02	-3.481932137781844006e+01
2.608732437752269834e+04	-3.203422813463581065e+01	-3.742491336083586528e-02	-3.481877253960077212e+01
2.608732784468862883e+04	-3.203295525284652001e+01	-3.740657048641134880e-02	-3.481822440566505605e+01
2.608733131185455932e+04	-3.203175124834822896e+01	-3.738994852744485786e-02	-3.481767697372065840e+01
2.608733477902048617e+04	-3.203061610555153038e+01	-3.737504373368254196e-02	-3.481713024148947966e+01
2.608733824618641665e+04	-3.202954980521701600e+01	-3.736185262027735127e-02	-3.481658420670567722e+01
2.608734171335234714e+04	-3.202855232447686262e+01	-3.735037196690802613e-02	-3.481603886711570084e+01
2.608734518051827399e+04	-3.202762363685662450e+01	-3.734059881698355982e-02	-3.481549422047790898e+01
2.608734864768420448e+04	-3.202676371229772201e+01	-3.733253047691811183e-02	-3.481495026456279618e+01
2.608735211485013497e+04	-3.202597251718007243e+01	-3.732616451549652936e-02	-3.481440699715258091e+01
2.608735558201606182e+04	-3.202525001434537444e+01	-3.732149876330977806e-02	-3.481386441604126958e+01
2.608735904918199230e+04	-3.202459616312066260e+01	-3.731853131227799020e-02	-3.481332251903437225e+01
2.608736251634792279e+04	-3.202401091934226685e+01	-3.731726051524258958e-02	-3.481278130394902348e+01
2.608736598351385328e+04	-3.202349423538026230e+01	-3.731768498564816405e-02	-3.481224076861366257e+01
2.608736945067978013e+04	-3.202304606016311084e+01	-3.731980359729649560e-02	-3.481170091086801222e+01
2.608737291784571062e+04	-3.202266633920292094e+01	-3.732361548418162978e-02	-3.481116172856299329e+01
2.608737638501164110e+04	-3.202235501462084244e+01	-3.732912004040484649e-02	-3.481062321956056849e+01
2.608737985217756795e+04	-3.202211202517297295e+01	-3.733631692016786685e-02	-3.481008538173367839e+01
2.608738331934349844e+04	-3.202193730627655555e+01	-3.734520603784678705e-02	-3.480954821296611357e+01
2.608738678650942893e+04	-3.202183079003648913e+01	-3.735578756814617735e-02	-3.480901171115235115e+01
2.608739025367535578e+04	-3.202179240527223669e+01	-3.736806194632760064e-02	-3.480847587419766143e+01
2.608739372084128627e+04	-3.202182207754503906e+01	-3.738202986852892651e-02	-3.480794070001771701e+01
2.608739718800721676e+04	-3.202191972918532059e+01	-3.739769229215253454e-02	-3.480740618653873497e+01
2.608740065517314360e+04	-3.202208527932066318e+01	-3.741505043634219679e-02	-3.480687233169728501e+01
2.608740412233907409e+04	-3.202231864390380878e+01	-3.743410578253814763e-02	-3.480633913344018993e+01
2.608740758950500458e+04	-3.202261973574106690e+01	-3.745486007511455995e-02	-3.480580658972442620e+01
2.608741105667093143e+04	-3.202298846452107739e+01	-3.747731532209877536e-02	-3.480527469851709554e+01
2.608741452383686192e+04	-3.202342473684364421e+01	-3.750147379597247588e-02	-3.480474345779526857e+01
2.608741799100279241e+04	-3.202392845624903828e+01	-3.752733803455968187e-02	-3.480421286554587823e+01
2.608742145816872289e+04	-3.202449952324742810e+01	-3.755491084199228530e-02	-3.480368291976572692e+01
2.608742492533464974e+04	-3.202513783534857339e+01	-3.758419528976469914e-02	-3.480315361846133726e+01
2.608742839250058023e+04	-3.202584328709176731e+01	-3.761519471787546504e-02	-3.480262495964881708e+01
2.608743185966651072e+04	-3.202661577007604166e+01	-3.764791273604747163e-02	-3.480209694135385945e+01
2.608743532683243757e+04	-3.202745517299046440e+01	-3.768235322504087659e-02	-3.480156956161166448e+01
2.608743879399836806e+04	-3.202836138164481383e+01	-3.771852033805272314e-02	-3.480104281846676884e+01
2.608744226116429854e+04	-3.202933427900028818e+01	-3.775641850220368134e-02	-3.480051670997301727e+01
2.608744572833022539e+04	-3.203037374520049951e+01	-3.779605242011206678e-02	-3.479999123419352003e+01
2.608744919549615588e+04	-3.203147965760260263e+01	-3.783742707156361601e-02	-3.479946638920048940e+01
2.608745266266208637e+04	-3.203265189080863706e+01	-3.788054771526740833e-02	-3.479894217307523263e+01
2.608745612982801322e+04	-3.203389031669696152e+01	-3.792541989070552511e-02	-3.479841858390805243e+01
2.608745959699394371e+04	-3.203519480445389433e+01	-3.797204942007797318e-02	-3.479789561979815460e+01
2.608746306415987419e+04	-3.203656522060545342e+01	-3.802044241033954858e-02	-3.479737327885361253e+01
2.608746653132580468e+04	-3.203800142904923831e+01	-3.807060525533555867e-02	-3.479685155919122508e+01
2.608746999849173153e+04	-3.203950329108645434e+01	-3.812254463803089327e-02	-3.479633045893649523e+01
2.608747346565766202e+04	-3.204107066545405758e+01	-3.817626753283972357e-02	-3.479580997622358041e+01
2.608747693282359251e+04	-3.204270340835689268e+01	-3.823178120805700159e-02	-3.479529010919515741e+01
2.608748039998951936e+04	-3.204440137350005813e+01	-3.828909322838588980e-02	-3.479477085600240116e+01
2.608748386715544984e+04	-3.204616441212128564e+01	-3.834821145757214000e-02	-3.479425221480489938e+01
2.608748733432138033e+04	-3.204799237302343329e+01	-3.840914406114475516e-02	-3.479373418377053895e+01
2.608749080148730718e+04	-3.204988510260692181e+01	-3.847189950925342800e-02	-3.479321676107556982e+01
2.608749426865323767e+04	-3.205184244490241241e+01	-3.853648657962518292e-02	-3.479269994490438478e+01
2.608749773581916816e+04	-3.205386424160339232e+01	-3.860291436062381065e-02	-3.479218373344951942e+01
2.608750120298509501e+04	-3.205595033209880285e+01	-3.867119225441930513e-02	-3.479166812491162375e+01
2.608750467015102549e+04	-3.205810055350574572e+01	-3.874132998027370739e-02	-3.479115311749934847e+01
2.608750813731695598e+04	-3.206031474070216092e+01	-3.881333757794353662e-02	-3.479063870942929526e+01
2.608751160448288283e+04	-3.206259272635958979e+01	-3.888722541119363219e-02	-3.479012489892595994e+01
2.608751507164881332e+04	-3.206493434097575346e+01	-3.896300417143443856e-02	-3.478961168422164008e+01
2.608751853881474381e+04	-3.206733941290735856e+01	-3.904068488147902083e-02	-3.478909906355647053e+01
2.608752200598067429e+04	-3.206980776840267566e+01	-3.912027889942525788e-02	-3.478858703517823159e+01
2.608752547314660114e+04	-3.207233923163419576e+01	-3.920179792266098584e-02	-3.478807559734234900e+01
2.608752894031253163e+04	-3.207493362473120158e+01	-3.928525399200129969e-02	-3.478756474831185841e+01
2.608753240747846212e+04	-3.207759076781232466e+01	-3.937065949595070641e-02	-3.478705448635736275e+01
2.608753587464438897e+04	-3.208031047901799582e+01	-3.945802717510631108e-02	-3.478654480975689722e+01
2.608753934181031946e+04	-3.208309257454287433e+01	-3.954737012669193308e-02	-3.478603571679592932e+01
2.608754280897624994e+04	-3.208593686866814210e+01	-3.963870180923063924e-02	-3.478552720576728063e+01
2.608754627614217679e+04	-3.208884317379378359e+01	-3.973203604736171707e-02	-3.478501927497111268e+01
2.608754974330810728e+04	-3.209181130047070241e+01	-3.982738703680205328e-02	-3.478451192271477055e+01
2.608755321047403777e+04	-3.209484105743274540e+01	-3.992476934944895473e-02	-3.478400514731290372e+01
2.608755667763996462e+04	-3.209793225162867714e+01	-4.002419793864327863e-02	-3.478349894708725287e+01
2.608756014480589511e+04	-3.210108468825390560e+01	-4.012568814458009753e-02	-3.478299332036666414e+01
2.608756361197182559e+04	-3.210429817078220793e+01	-4.022925569987770289e-02	-3.478248826548701089e+01
2.608756707913775608e+04	-3.210757250099722881e+01	-4.033491673530737592e-02	-3.478198378079119379e+01
2.608757054630368293e+04	-3.211090747902385090e+01	-4.044268778568835265e-02	-3.478147986462906260e+01
2.608757401346961342e+04	-3.211430290335946580e+01	-4.055258579595125840e-02	-3.478097651535729540e+01
2.608757748063554391e+04	-3.211775857090492536e+01	-4.066462812736768712e-02	-3.478047373133953357e+01
2.608758094780147076e+04	-3.212127427699552129e+01	-4.077883256396686723e-02	-3.477997151094606210e+01
2.608758441496740124e+04	-3.212484981543160245e+01	-4.089521731911631430e-02	-3.477946985255406531e+01
2.608758788213333173e+04	-3.212848497850912821e+01	-4.101380104230135243e-02	-3.477896875454735692e+01
2.608759134929925858e+04	-3.213217955704993756e+01	-4.113460282608416563e-02	-3.477846821531640842e+01
2.608759481646518907e+04	-3.213593334043183347e+01	-4.125764221325668030e-02	-3.477796823325829934e+01
2.608759828363111956e+04	-3.213974611661851810e+01	-4.138293920419080368e-02	-3.477746880677674568e+01
2.608760175079704641e+04	-3.214361767218915844e+01	-4.151051426439603120e-02	-3.477696993428182282e+01
2.608760521796297689e+04	-3.214754779236788096e+01	-4.164038833226967745e-02	-3.477647161419026389e+01
2.608760868512890738e+04	-3.215153626105291806e+01	-4.177258282707797810e-02	-3.477597384492510457e+01
2.608761215229483787e+04	-3.215558286084555562e+01	-4.190711965713739273e-02	-3.477547662491581093e+01
2.608761561946076472e+04	-3.215968737307881042e+01	-4.204402122822728516e-02	-3.477497995259822972e+01
2.608761908662669521e+04	-3.216384957784583776e+01	-4.218331045222905445e-02	-3.477448382641446045e+01
2.608762255379262569e+04	-3.216806925402809725e+01	-4.232501075599866269e-02	-3.477398824481285544e+01
2.608762602095855254e+04	-3.217234617932321328e+01	-4.246914609047438421e-02	-3.477349320624804108e+01
