# time(us)	tip(nm)	Fts(nN)	Xb(nm)
2.608696032510011719e+04	-4.062867264906968501e+01	-9.502553015262282798e+00	-4.062874199975652090e+01
2.608696379226604404e+04	-4.062798091728748773e+01	-9.502636181875958599e+00	-4.062804994482172560e+01
2.608696725943197453e+04	-4.062729243202701213e+01	-9.502521604688945800e+00	-4.062736113368407587e+01
2.608697072659790501e+04	-4.062660722046355488e+01	-9.502209292215606951e+00	-4.062667559353170077e+01
2.608697419376383550e+04	-4.062592530964316495e+01	-9.501699260743968978e+00	-4.062599335142363799e+01
2.608697766092976235e+04	-4.062524672648171986e+01	-9.500991534311477693e+00	-4.062531443428882483e+01
2.608698112809569284e+04	-4.062457149776368937e+01	-9.500086144747012185e+00	-4.062463886892491161e+01
2.608698459526162333e+04	-4.062389965014121884e+01	-9.498983131623795373e+00	-4.062396668199734506e+01
2.608698806242755018e+04	-4.062323121013302796e+01	-9.497682542285089013e+00	-4.062329790003819596e+01
2.608699152959348066e+04	-4.062256620412331642e+01	-9.496184431833009754e+00	-4.062263254944519986e+01
2.608699499675941115e+04	-4.062190465836081188e+01	-9.494488863127232392e+00	-4.062197065648066285e+01
2.608699846392533800e+04	-4.062124659895767564e+01	-9.492595906778074522e+00	-4.062131224727044554e+01
2.608700193109126849e+04	-4.062059205188846533e+01	-9.490505641145533744e+00	-4.062065734780294690e+01
2.608700539825719898e+04	-4.061994104298918984e+01	-9.488218152341307388e+00	-4.062000598392803852e+01
2.608700886542312583e+04	-4.061929359795618666e+01	-9.485733534221175489e+00	-4.061935818135606269e+01
2.608701233258905631e+04	-4.061864974234515557e+01	-9.483051888367413085e+00	-4.061871396565685899e+01
2.608701579975498680e+04	-4.061800950157017809e+01	-9.480173324113581046e+00	-4.061807336225868426e+01
2.608701926692091365e+04	-4.061737290090263741e+01	-9.477097958505126485e+00	-4.061743639644728177e+01
2.608702273408684414e+04	-4.061673996547033028e+01	-9.473825916321114704e+00	-4.061680309336482253e+01
2.608702620125277463e+04	-4.061611072025637270e+01	-9.470357330059748335e+00	-4.061617347800893185e+01
2.608702966841870511e+04	-4.061548519009828340e+01	-9.466692339921438659e+00	-4.061554757523173720e+01
2.608703313558463196e+04	-4.061486339968695347e+01	-9.462831093832200224e+00	-4.061492540973883081e+01
2.608703660275056245e+04	-4.061424537356570852e+01	-9.458773747394353393e+00	-4.061430700608836020e+01
2.608704006991649294e+04	-4.061363113612933518e+01	-9.454520463920619733e+00	-4.061369238868998366e+01
2.608704353708241979e+04	-4.061302071162309346e+01	-9.450071414408981241e+00	-4.061308158180397498e+01
2.608704700424835028e+04	-4.061241412414180019e+01	-9.445426777528718176e+00	-4.061247460954023580e+01
2.608705047141428076e+04	-4.061181139762884840e+01	-9.440586739635842051e+00	-4.061187149585731504e+01
2.608705393858020761e+04	-4.061121255587525525e+01	-9.435551494728199984e+00	-4.061127226456156336e+01
2.608705740574613810e+04	-4.061061762251877383e+01	-9.430321244479896947e+00	-4.061067693930605316e+01
2.608706087291206859e+04	-4.061002662104288419e+01	-9.424896198197936670e+00	-4.061008554358976852e+01
2.608706434007799544e+04	-4.060943957477594068e+01	-9.419276572840141526e+00	-4.060949810075659627e+01
2.608706780724392593e+04	-4.060885650689021276e+01	-9.413462592984723543e+00	-4.060891463399445911e+01
2.608707127440985641e+04	-4.060827744040096832e+01	-9.407454490840070349e+00	-4.060833516633437767e+01
2.608707474157578690e+04	-4.060770239816558558e+01	-9.401252506210473925e+00	-4.060775972064954686e+01
2.608707820874171375e+04	-4.060713140288263645e+01	-9.394856886518043737e+00	-4.060718831965446185e+01
2.608708167590764424e+04	-4.060656447709098416e+01	-9.388267886763614456e+00	-4.060662098590399438e+01
2.608708514307357473e+04	-4.060600164316893768e+01	-9.381485769532289964e+00	-4.060605774179256144e+01
2.608708861023950158e+04	-4.060544292333327832e+01	-9.374510804984783618e+00	-4.060549860955312340e+01
2.608709207740543206e+04	-4.060488833963849942e+01	-9.367343270827444002e+00	-4.060494361125645923e+01
2.608709554457136255e+04	-4.060433791397585424e+01	-9.359983452327801601e+00	-4.060439276881015758e+01
2.608709901173728940e+04	-4.060379166807251039e+01	-9.352431642277419854e+00	-4.060384610395784932e+01
2.608710247890321989e+04	-4.060324962349068301e+01	-9.344688141000647263e+00	-4.060330363827829103e+01
2.608710594606915038e+04	-4.060271180162685312e+01	-9.336753256322548822e+00	-4.060276539318456201e+01
2.608710941323507723e+04	-4.060217822371080132e+01	-9.328627303580374175e+00	-4.060223138992316905e+01
2.608711288040100771e+04	-4.060164891080489724e+01	-9.320310605584733565e+00	-4.060170164957322925e+01
2.608711634756693820e+04	-4.060112388380316872e+01	-9.311803492628081713e+00	-4.060117619304566716e+01
2.608711981473286505e+04	-4.060060316343052023e+01	-9.303106302462897048e+00	-4.060065504108233370e+01
2.608712328189879554e+04	-4.060008677024194412e+01	-9.294219380284179266e+00	-4.060013821425522451e+01
2.608712674906472603e+04	-4.059957472462163963e+01	-9.285143078714044762e+00	-4.059962573296569843e+01
2.608713021623065652e+04	-4.059906704678226674e+01	-9.275877757804023460e+00	-4.059911761744356795e+01
2.608713368339658336e+04	-4.059856375676412199e+01	-9.266423785005299507e+00	-4.059861388774641000e+01
2.608713715056251385e+04	-4.059806487443437106e+01	-9.256781535152327933e+00	-4.059811456375874172e+01
2.608714061772844434e+04	-4.059757041948620326e+01	-9.246951390456889186e+00	-4.059761966519119625e+01
2.608714408489437119e+04	-4.059708041143814938e+01	-9.236933740495059553e+00	-4.059712921157979082e+01
2.608714755206030168e+04	-4.059659486963323616e+01	-9.226728982173554527e+00	-4.059664322228514521e+01
2.608715101922623217e+04	-4.059611381323826151e+01	-9.216337519731185424e+00	-4.059616171649170724e+01
2.608715448639215901e+04	-4.059563726124299166e+01	-9.205759764727012850e+00	-4.059568471320699246e+01
2.608715795355808950e+04	-4.059516523245948605e+01	-9.194996135999240039e+00	-4.059521223126084521e+01
2.608716142072401999e+04	-4.059469774552128740e+01	-9.184047059668746016e+00	-4.059474428930472101e+01
2.608716488788994684e+04	-4.059423481888272534e+01	-9.172912969127098748e+00	-4.059428090581086934e+01
2.608716835505587733e+04	-4.059377647081817031e+01	-9.161594304996565796e+00	-4.059382209907170136e+01
2.608717182222180782e+04	-4.059332271942130177e+01	-9.150091515123174091e+00	-4.059336788719901534e+01
2.608717528938773830e+04	-4.059287358260443312e+01	-9.138405054574363362e+00	-4.059291828812327907e+01
2.608717875655366515e+04	-4.059242907809777279e+01	-9.126535385592234206e+00	-4.059247331959294769e+01
2.608718222371959564e+04	-4.059198922344872784e+01	-9.114482977604710712e+00	-4.059203299917373187e+01
2.608718569088552613e+04	-4.059155403602122902e+01	-9.102248307179165110e+00	-4.059159734424794408e+01
2.608718915805145298e+04	-4.059112353299502018e+01	-9.089831858028352585e+00	-4.059116637201376676e+01
2.608719262521738347e+04	-4.059069773136496906e+01	-9.077234120967505149e+00	-4.059074009948461992e+01
2.608719609238331395e+04	-4.059027664794047752e+01	-9.064455593915644371e+00	-4.059031854348845059e+01
2.608719955954924080e+04	-4.058986029934471418e+01	-9.051496781861509078e+00	-4.058990172066710755e+01
2.608720302671517129e+04	-4.058944870201403887e+01	-9.038358196858695237e+00	-4.058948964747560950e+01
2.608720649388110178e+04	-4.058904187219727078e+01	-9.025040357982783590e+00	-4.058908234018161210e+01
2.608720996104702863e+04	-4.058863982595515552e+01	-9.011543791335931530e+00	-4.058867981486466903e+01
2.608721342821295912e+04	-4.058824257915961908e+01	-8.997869029996763857e+00	-4.058828208741563515e+01
2.608721689537888960e+04	-4.058785014749322073e+01	-8.984016614039790127e+00	-4.058788917353602699e+01
2.608722036254482009e+04	-4.058746254644852058e+01	-8.969987090471912339e+00	-4.058750108873741169e+01
2.608722382971074694e+04	-4.058707979132741883e+01	-8.955781013236929766e+00	-4.058711784834080305e+01
2.608722729687667743e+04	-4.058670189724060151e+01	-8.941398943183825665e+00	-4.058673946747604333e+01
2.608723076404260792e+04	-4.058632887910693654e+01	-8.926841448051050065e+00	-4.058636596108120642e+01
2.608723423120853477e+04	-4.058596075165289108e+01	-8.912109102437513641e+00	-4.058599734390199387e+01
2.608723769837446525e+04	-4.058559752941188492e+01	-8.897202487783122393e+00	-4.058563363049120198e+01
2.608724116554039574e+04	-4.058523922672385709e+01	-8.882122192341267208e+00	-4.058527483520809653e+01
2.608724463270632259e+04	-4.058488585773449842e+01	-8.866868811167950781e+00	-4.058492097221785855e+01
2.608724809987225308e+04	-4.058453743639490341e+01	-8.851442946080194218e+00	-4.058457205549105140e+01
2.608725156703818357e+04	-4.058419397646087390e+01	-8.835845205648114487e+00	-4.058422809880303106e+01
2.608725503420411042e+04	-4.058385549149242877e+01	-8.820076205168168926e+00	-4.058388911573341318e+01
2.608725850137004090e+04	-4.058352199485327105e+01	-8.804136566629081173e+00	-4.058355511966556861e+01
2.608726196853597139e+04	-4.058319349971025503e+01	-8.788026918695932110e+00	-4.058322612378604788e+01
2.608726543570189824e+04	-4.058287001903286040e+01	-8.771747896685639034e+00	-4.058290214108409799e+01
2.608726890286782873e+04	-4.058255156559267363e+01	-8.755300142536347252e+00	-4.058258318435112244e+01
2.608727237003375922e+04	-4.058223815196289763e+01	-8.738684304787842194e+00	-4.058226926618017671e+01
2.608727583719968970e+04	-4.058192979051787574e+01	-8.721901038557049901e+00	-4.058196039896551355e+01
2.608727930436561655e+04	-4.058162649343255168e+01	-8.704951005502884698e+00	-4.058165659490204291e+01
2.608728277153154704e+04	-4.058132827268202192e+01	-8.687834873817941173e+00	-4.058135786598485595e+01
2.608728623869747753e+04	-4.058103514004105961e+01	-8.670553318174743396e+00	-4.058106422400879154e+01
2.608728970586340438e+04	-4.058074710708364563e+01	-8.653107019725933213e+00	-4.058077568056792472e+01
2.608729317302933487e+04	-4.058046418518250675e+01	-8.635496666063941618e+00	-4.058049224705513325e+01
2.608729664019526535e+04	-4.058018638550868218e+01	-8.617722951205841753e+00	-4.058021393466162863e+01
2.608730010736119220e+04	-4.057991371903106170e+01	-8.599786575535334876e+00	-4.057994075437656534e+01
2.608730357452712269e+04	-4.057964619651596649e+01	-8.581688245826113004e+00	-4.057967271698652212e+01
2.608730704169305318e+04	-4.057938382852672987e+01	-8.563428675166633752e+00	-4.057940983307513960e+01
2.608731050885898003e+04	-4.057912662542325677e+01	-8.545008582955873067e+00	-4.057915211302269398e+01
2.608731397602491052e+04	-4.057887459736161873e+01	-8.526428694875278325e+00	-4.057889956700567069e+01
2.608731744319084100e+04	-4.057862775429369151e+01	-8.507689742840005565e+00	-4.057865220499636649e+01
2.608732091035677149e+04	-4.057838610596672169e+01	-8.488792465005930765e+00	-4.057841003676250580e+01
2.608732437752269834e+04	-4.057814966192292161e+01	-8.469737605706875172e+00	-4.057817307186684275e+01
2.608732784468862883e+04	-4.057791843149917099e+01	-8.450525915442593572e+00	-4.057794131966679174e+01
2.608733131185455932e+04	-4.057769242382656927e+01	-8.431158150847451793e+00	-4.057771478931404374e+01
2.608733477902048617e+04	-4.057747164783009453e+01	-8.411635074660745559e+00	-4.057749348975421810e+01
2.608733824618641665e+04	-4.057725611222830508e+01	-8.391957455689944112e+00	-4.057727742972651441e+01
2.608734171335234714e+04	-4.057704582553290606e+01	-8.372126068794011999e+00	-4.057706661776334300e+01
2.608734518051827399e+04	-4.057684079604847227e+01	-8.352141694832720731e+00	-4.057686106219004074e+01
2.608734864768420448e+04	-4.057664103187213556e+01	-8.332005120671235332e+00	-4.057666077112442338e+01
2.608735211485013497e+04	-4.057644654089319403e+01	-8.311717139097854812e+00	-4.057646575247665055e+01
2.608735558201606182e+04	-4.057625733079284913e+01	-8.291278548847730079e+00	-4.057627601394872130e+01
2.608735904918199230e+04	-4.057607340904388593e+01	-8.270690154528077542e+00	-4.057609156303430353e+01
2.608736251634792279e+04	-4.057589478291043150e+01	-8.249952766616488020e+00	-4.057591240701837876e+01
2.608736598351385328e+04	-4.057572145944758546e+01	-8.229067201413908350e+00	-4.057573855297694365e+01
2.608736945067978013e+04	-4.057555344550115706e+01	-8.208034281012540845e+00	-4.057557000777678979e+01
2.608737291784571062e+04	-4.057539074770748755e+01	-8.186854833272548149e+00	-4.057540677807516971e+01
2.608737638501164110e+04	-4.057523337249300255e+01	-8.165529691776631793e+00	-4.057524887031957661e+01
2.608737985217756795e+04	-4.057508132607419071e+01	-8.144059695825824008e+00	-4.057509629074743884e+01
2.608738331934349844e+04	-4.057493461445714189e+01	-8.122445690361143278e+00	-4.057494904538593516e+01
2.608738678650942893e+04	-4.057479324343745475e+01	-8.100688525973286147e+00	-4.057480714005172473e+01
2.608739025367535578e+04	-4.057465721859995966e+01	-8.078789058847776872e+00	-4.057467058035069840e+01
2.608739372084128627e+04	-4.057452654531846292e+01	-8.056748150736114056e+00	-4.057453937167779401e+01
2.608739718800721676e+04	-4.057440122875557620e+01	-8.034566668917564769e+00	-4.057441351921676898e+01
2.608740065517314360e+04	-4.057428127386254602e+01	-8.012245486181818421e+00	-4.057429302793996584e+01
2.608740412233907409e+04	-4.057416668537894111e+01	-7.989785480771399051e+00	-4.057417790260817014e+01
2.608740758950500458e+04	-4.057405746783259559e+01	-7.967187536364535028e+00	-4.057406814777039017e+01
2.608741105667093143e+04	-4.057395362553933893e+01	-7.944452542037118370e+00	-4.057396376776365798e+01
2.608741452383686192e+04	-4.057385516260287517e+01	-7.921581392223608908e+00	-4.057386476671290154e+01
2.608741799100279241e+04	-4.057376208291459108e+01	-7.898574986688892352e+00	-4.057377114853073863e+01
2.608742145816872289e+04	-4.057367439015343535e+01	-7.875434230486031417e+00	-4.057368291691737028e+01
2.608742492533464974e+04	-4.057359208778570547e+01	-7.852160033922316984e+00	-4.057360007536038182e+01
2.608742839250058023e+04	-4.057351517906501215e+01	-7.828753312532359843e+00	-4.057352262713463631e+01
2.608743185966651072e+04	-4.057344366703204486e+01	-7.805214987029700957e+00	-4.057345057530213950e+01
2.608743532683243757e+04	-4.057337755451453631e+01	-7.781545983285360180e+00	-4.057338392271190486e+01
2.608743879399836806e+04	-4.057331684412709905e+01	-7.757747232276408056e+00	-4.057332267199987541e+01
2.608744226116429854e+04	-4.057326153827112591e+01	-7.733819670059108198e+00	-4.057326682558877451e+01
2.608744572833022539e+04	-4.057321163913470485e+01	-7.709764237737633863e+00	-4.057321638568801347e+01
2.608744919549615588e+04	-4.057316714869256913e+01	-7.685581881411235550e+00	-4.057317135429366317e+01
2.608745266266208637e+04	-4.057312806870593391e+01	-7.661273552147043198e+00	-4.057313173318831190e+01
2.608745612982801322e+04	-4.057309440072248208e+01	-7.636840205951553884e+00	-4.057309752394098723e+01
2.608745959699394371e+04	-4.057306614607633577e+01	-7.612282803714508717e+00	-4.057306872790716312e+01
2.608746306415987419e+04	-4.057304330588789298e+01	-7.587602311190559945e+00	-4.057304534622862491e+01
2.608746653132580468e+04	-4.057302588106392705e+01	-7.562799698945932292e+00	-4.057302737983349772e+01
2.608746999849173153e+04	-4.057301387229739476e+01	-7.537875942330758861e+00	-4.057301482943612569e+01
2.608747346565766202e+04	-4.057300728006755008e+01	-7.512832021438036634e+00	-4.057300769553714304e+01
2.608747693282359251e+04	-4.057300610463983048e+01	-7.487668921067472283e+00	-4.057300597842334611e+01
2.608748039998951936e+04	-4.057301034606586398e+01	-7.462387630681108774e+00	-4.057300967816778581e+01
2.608748386715544984e+04	-4.057302000418351184e+01	-7.436989144372747162e+00	-4.057301879462966809e+01
2.608748733432138033e+04	-4.057303507861683300e+01	-7.411474460824059030e+00	-4.057303332745443214e+01
2.608749080148730718e+04	-4.057305556877608410e+01	-7.385844583268148966e+00	-4.057305327607371481e+01
2.608749426865323767e+04	-4.057308147385779051e+01	-7.360100519447589917e+00	-4.057307863970542172e+01
2.608749773581916816e+04	-4.057311279284473216e+01	-7.334243281581049878e+00	-4.057310941735369880e+01
2.608750120298509501e+04	-4.057314952450600742e+01	-7.308273886313736867e+00	-4.057314560780903889e+01
2.608750467015102549e+04	-4.057319166739708294e+01	-7.282193354700027932e+00	-4.057318720964821779e+01
2.608750813731695598e+04	-4.057323921985982196e+01	-7.256002712132438859e+00	-4.057323422123449319e+01
2.608751160448288283e+04	-4.057329218002259807e+01	-7.229702988322991075e+00	-4.057328664071756918e+01
2.608751507164881332e+04	-4.057335054580031652e+01	-7.203295217260156313e+00	-4.057334446603370282e+01
2.608751853881474381e+04	-4.057341431489449946e+01	-7.176780437167586513e+00	-4.057340769490575383e+01
2.608752200598067429e+04	-4.057348348479344224e+01	-7.150159690457952522e+00	-4.057347632484333388e+01
2.608752547314660114e+04	-4.057355805277224192e+01	-7.123434023703893558e+00	-4.057355035314282787e+01
2.608752894031253163e+04	-4.057363801589291086e+01	-7.096604487579518228e+00	-4.057362977688759997e+01
2.608753240747846212e+04	-4.057372337100452597e+01	-7.069672136851253619e+00	-4.057371459294797233e+01
2.608753587464438897e+04	-4.057381411474331401e+01	-7.042638030292356355e+00	-4.057380479798147377e+01
2.608753934181031946e+04	-4.057391024353282916e+01	-7.015503230682152314e+00	-4.057390038843291791e+01
2.608754280897624994e+04	-4.057401175358403833e+01	-6.988268804747198359e+00	-4.057400136053451689e+01
2.608754627614217679e+04	-4.057411864089551301e+01	-6.960935823116590093e+00	-4.057410771030608032e+01
2.608754974330810728e+04	-4.057423090125357845e+01	-6.933505360287506747e+00	-4.057421943355515026e+01
2.608755321047403777e+04	-4.057434853023245580e+01	-6.905978494580469196e+00	-4.057433652587714334e+01
2.608755667763996462e+04	-4.057447152319445394e+01	-6.878356308099019323e+00	-4.057445898265556394e+01
2.608756014480589511e+04	-4.057459987529015422e+01	-6.850639886692386327e+00	-4.057458679906215337e+01
2.608756361197182559e+04	-4.057473358145861653e+01	-6.822830319898192997e+00	-4.057471997005710307e+01
2.608756707913775608e+04	-4.057487263642752140e+01	-6.794928700914055320e+00	-4.057485849038923220e+01
2.608757054630368293e+04	-4.057501703471342580e+01	-6.766936126551756026e+00	-4.057500235459620797e+01
2.608757401346961342e+04	-4.057516677062197630e+01	-6.738853697200839044e+00	-4.057515155700473741e+01
2.608757748063554391e+04	-4.057532183824812222e+01	-6.710682516758776472e+00	-4.057530609173085878e+01
2.608758094780147076e+04	-4.057548223147635014e+01	-6.682423692635412138e+00	-4.057546595268006229e+01
2.608758441496740124e+04	-4.057564794398088992e+01	-6.654078335658981658e+00	-4.057563113354763118e+01
2.608758788213333173e+04	-4.057581896922606290e+01	-6.625647560076343368e+00	-4.057580162781881938e+01
2.608759134929925858e+04	-4.057599530046641689e+01	-6.597132483470867115e+00	-4.057597742876917835e+01
2.608759481646518907e+04	-4.057617693074706722e+01	-6.568534226761786776e+00	-4.057615852946472046e+01
2.608759828363111956e+04	-4.057636385290393832e+01	-6.539853914117936817e+00	-4.057634492276230986e+01
2.608760175079704641e+04	-4.057655605956406930e+01	-6.511092672939511772e+00	-4.057653660130986140e+01
2.608760521796297689e+04	-4.057675354314589811e+01	-6.482251633820719228e+00	-4.057673355754661770e+01
2.608760868512890738e+04	-4.057695629585954578e+01	-6.453331930470590727e+00	-4.057693578370356136e+01
2.608761215229483787e+04	-4.057716430970711485e+01	-6.424334699712212604e+00	-4.057714327180356406e+01
2.608761561946076472e+04	-4.057737757648305177e+01	-6.395261081409695514e+00	-4.057735601366183431e+01
2.608761908662669521e+04	-4.057759608777441684e+01	-6.366112218438084724e+00	-4.057757400088613764e+01
2.608762255379262569e+04	-4.057781983496125378e+01	-6.336889256629230083e+00	-4.057779722487720875e+01
2.608762602095855254e+04	-4.057804880921688095e+01	-6.307593344724895523e+00	-4.057802567682905703e+01
