# time(us)	tip(nm)	Fts(nN)	Xb(nm)
1.630437173592529507e+04	-2.693487427335162110e+00	3.515376788204290648e+01	-2.693487830140067985e+00
1.630439347505572005e+04	-2.693487000310117896e+00	3.515433429790084574e+01	-2.693486748381585638e+00
1.630441521418614684e+04	-2.693493120632988624e+00	3.515529578055529925e+01	-2.693492213972640492e+00
1.630443695331657364e+04	-2.693505788137820822e+00	3.515665229601279407e+01	-2.693504226774504406e+00
1.630445869244700043e+04	-2.693525002386419676e+00	3.515840379529511495e+01	-2.693522786376204348e+00
1.630448043157742541e+04	-2.693550762668341481e+00	3.516055021443984430e+01	-2.693547892094522833e+00
1.630450217070785220e+04	-2.693583068000888314e+00	3.516309147450013484e+01	-2.693579542973987273e+00
1.630452390983827900e+04	-2.693621917129132903e+00	3.516602748154569014e+01	-2.693617737786892175e+00
1.630454564896870579e+04	-2.693667308525921289e+00	3.516935812666292804e+01	-2.693662475033305359e+00
1.630456738809913077e+04	-2.693719240391927894e+00	3.517308328595701283e+01	-2.693713752941116812e+00
1.630458912722955756e+04	-2.693777710655685720e+00	3.517720282055285708e+01	-2.693771569466069771e+00
1.630461086635998436e+04	-2.693842716973668949e+00	3.518171657659858198e+01	-2.693835922291842433e+00
1.630463260549041115e+04	-2.693914256730323586e+00	3.518662438526603609e+01	-2.693906808830081268e+00
1.630465434462083795e+04	-2.693992327038125634e+00	3.519192606275201030e+01	-2.693984226220455191e+00
1.630467608375126292e+04	-2.694076924737689893e+00	3.519762141028233060e+01	-2.694068171330762596e+00
1.630469782288168972e+04	-2.694168046397847238e+00	3.520371021411403945e+01	-2.694158640757006395e+00
1.630471956201211651e+04	-2.694265688315747198e+00	3.521019224553887739e+01	-2.694255630823501502e+00
1.630474130114254331e+04	-2.694369846516975198e+00	3.521706726088659423e+01	-2.694359137582982733e+00
1.630476304027296828e+04	-2.694480516755656918e+00	3.522433500152834540e+01	-2.694469156816717614e+00
1.630478477940339508e+04	-2.694597694514592412e+00	3.523199519388047918e+01	-2.694585684034632056e+00
1.630480651853382187e+04	-2.694721375005380892e+00	3.524004754940811068e+01	-2.694708714475438249e+00
1.630482825766424867e+04	-2.694851553168589930e+00	3.524849176463079203e+01	-2.694838243106802089e+00
1.630484999679467364e+04	-2.694988223673902006e+00	3.525732752112664059e+01	-2.694974264625484839e+00
1.630487173592510044e+04	-2.695131380920270825e+00	3.526655448553679406e+01	-2.695116773457506554e+00
1.630489347505552723e+04	-2.695281019036115389e+00	3.527617230957162064e+01	-2.695265763758331268e+00
1.630491521418595403e+04	-2.695437131879507398e+00	3.528618063001650285e+01	-2.695421229413057063e+00
1.630493695331637900e+04	-2.695599713038342227e+00	3.529657906873619311e+01	-2.695583164036587487e+00
1.630495869244680580e+04	-2.695768755830549424e+00	3.530736723268131527e+01	-2.695751560973839389e+00
1.630498043157723259e+04	-2.695944253304345839e+00	3.531854471389680583e+01	-2.695926413299991609e+00
1.630500217070765939e+04	-2.696126198238400828e+00	3.533011108952555901e+01	-2.696107713820656393e+00
1.630502390983808436e+04	-2.696314583142105814e+00	3.534206592181718065e+01	-2.696295455072143188e+00
1.630504564896851116e+04	-2.696509400255822975e+00	3.535440875813570472e+01	-2.696489629321705550e+00
1.630506738809893795e+04	-2.696710641551123278e+00	3.536713913096619422e+01	-2.696690228567781400e+00
1.630508912722936475e+04	-2.696918298731067587e+00	3.538025655792377222e+01	-2.696897244540270133e+00
1.630511086635978972e+04	-2.697132363230485552e+00	3.539376054176221231e+01	-2.697110668700812841e+00
1.630513260549021652e+04	-2.697352826216243837e+00	3.540765057038152719e+01	-2.697330492243058764e+00
1.630515434462064331e+04	-2.697579678587543217e+00	3.542192611683713466e+01	-2.697556706092963275e+00
1.630517608375107011e+04	-2.697812910976217005e+00	3.543658663934851205e+01	-2.697789300909080090e+00
1.630519782288149690e+04	-2.698052513747057901e+00	3.545163158130971226e+01	-2.698028267082892118e+00
1.630521956201192188e+04	-2.698298476998141737e+00	3.546706037129919054e+01	-2.698273594739132974e+00
1.630524130114234868e+04	-2.698550790561163204e+00	3.548287242309000789e+01	-2.698525273736117835e+00
1.630526304027277547e+04	-2.698809444001785796e+00	3.549906713566092975e+01	-2.698783293666101368e+00
1.630528477940320226e+04	-2.699074426619988643e+00	3.551564389320650150e+01	-2.699047643855612133e+00
1.630530651853362724e+04	-2.699345727450429333e+00	3.553260206514847397e+01	-2.699318313365822508e+00
1.630532825766405404e+04	-2.699623335262838264e+00	3.554994100614847241e+01	-2.699595290992939933e+00
1.630534999679448083e+04	-2.699907238562388567e+00	3.556766005611895309e+01	-2.699878565268574615e+00
1.630537173592490763e+04	-2.700197425590120215e+00	3.558575854023708018e+01	-2.700168124460160968e+00
1.630539347505533260e+04	-2.700493884323317051e+00	3.560423576895620101e+01	-2.700463956571341750e+00
1.630541521418575940e+04	-2.700796602475936670e+00	3.562309103801894139e+01	-2.700766049342385511e+00
1.630543695331618619e+04	-2.701105567499047844e+00	3.564232362847199909e+01	-2.701074390250634227e+00
1.630545869244661299e+04	-2.701420766581263067e+00	3.566193280667879861e+01	-2.701388966510922973e+00
1.630548043157703796e+04	-2.701742186649191080e+00	3.568191782433452630e+01	-2.701709765076038217e+00
1.630550217070746476e+04	-2.702069814367909384e+00	3.570227791848167698e+01	-2.702036772637193884e+00
1.630552390983789155e+04	-2.702403636141434085e+00	3.572301231152438561e+01	-2.702369975624488330e+00
1.630554564896831835e+04	-2.702743638113185298e+00	3.574412021124345529e+01	-2.702709360207378175e+00
1.630556738809874332e+04	-2.703089806166493414e+00	3.576560081081317577e+01	-2.703054912295183687e+00
1.630558912722917012e+04	-2.703442125925106243e+00	3.578745328881704069e+01	-2.703406617537584822e+00
1.630561086635959691e+04	-2.703800582753702386e+00	3.580967680926522689e+01	-2.703764461325143920e+00
1.630563260549002371e+04	-2.704165161758438352e+00	3.583227052161273463e+01	-2.704128428789847050e+00
1.630565434462044868e+04	-2.704535847787443270e+00	3.585523356077456469e+01	-2.704498504805601833e+00
1.630567608375087548e+04	-2.704912625431407758e+00	3.587856504714567762e+01	-2.704874673988813871e+00
1.630569782288130227e+04	-2.705295479024141692e+00	3.590226408662051227e+01	-2.705256920698960066e+00
1.630571956201172907e+04	-2.705684392643126213e+00	3.592632977060964805e+01	-2.705645229039124633e+00
1.630574130114215404e+04	-2.706079350110114135e+00	3.595076117606130595e+01	-2.706039582856611059e+00
1.630576304027258084e+04	-2.706480334991701042e+00	3.597555736547916894e+01	-2.706439965743498544e+00
1.630578477940300763e+04	-2.706887330599963004e+00	3.600071738694531831e+01	-2.706846361037290816e+00
1.630580651853343443e+04	-2.707300319993063642e+00	3.602624027414012176e+01	-2.707258751821515652e+00
1.630582825766386122e+04	-2.707719285975870527e+00	3.605212504636293858e+01	-2.707677120926337722e+00
1.630584999679428620e+04	-2.708144211100612875e+00	3.607837070855541128e+01	-2.708101450929222054e+00
1.630587173592471299e+04	-2.708575077667508157e+00	3.610497625132223476e+01	-2.708531724155561093e+00
1.630589347505513979e+04	-2.709011867725451328e+00	3.613194065095512286e+01	-2.708967922679349272e+00
1.630591521418556658e+04	-2.709454563072684063e+00	3.615926286945624213e+01	-2.709410028323860686e+00
1.630593695331599156e+04	-2.709903145257470669e+00	3.618694185456166679e+01	-2.709858022662329891e+00
1.630595869244641835e+04	-2.710357595578826384e+00	3.621497653976718567e+01	-2.710311887018662880e+00
1.630598043157684515e+04	-2.710817895087199059e+00	3.624336584435168618e+01	-2.710771602468132091e+00
1.630600217070727194e+04	-2.711284024585192576e+00	3.627210867340313882e+01	-2.711237149838095384e+00
1.630602390983769692e+04	-2.711755964628309368e+00	3.630120391784442546e+01	-2.711708509708729675e+00
1.630604564896812371e+04	-2.712233695525688049e+00	3.633065045445979280e+01	-2.712185662413775677e+00
1.630606738809855051e+04	-2.712717197340881903e+00	3.636044714592334515e+01	-2.712668588041311946e+00
1.630608912722897730e+04	-2.713206449892607175e+00	3.639059284082510004e+01	-2.713157266434503612e+00
1.630611086635940228e+04	-2.713701432755532217e+00	3.642108637370002100e+01	-2.713651677192387979e+00
1.630613260548982907e+04	-2.714202125261083065e+00	3.645192656505710715e+01	-2.714151799670677434e+00
1.630615434462025587e+04	-2.714708506498224594e+00	3.648311222140795707e+01	-2.714657612982549928e+00
1.630617608375068266e+04	-2.715220555314302509e+00	3.651464213529721548e+01	-2.715169095999472315e+00
1.630619782288110764e+04	-2.715738250315857361e+00	3.654651508533318349e+01	-2.715686227352031246e+00
1.630621956201153444e+04	-2.716261569869482084e+00	3.657872983621889773e+01	-2.716208985430772938e+00
1.630624130114196123e+04	-2.716790492102653332e+00	3.661128513878333735e+01	-2.716737348387049167e+00
1.630626304027238803e+04	-2.717324994904627200e+00	3.664417973001476980e+01	-2.717271294133898785e+00
1.630628477940281300e+04	-2.717865055927302542e+00	3.667741233309311610e+01	-2.717810800346915023e+00
1.630630651853323980e+04	-2.718410652586116250e+00	3.671098165742368735e+01	-2.718355844465140780e+00
1.630632825766366659e+04	-2.718961762060953635e+00	3.674488639867160344e+01	-2.718906403691973672e+00
1.630634999679409339e+04	-2.719518361297048159e+00	3.677912523879626860e+01	-2.719462454996076417e+00
1.630637173592452018e+04	-2.720080427005913570e+00	3.681369684608580428e+01	-2.720023975112287662e+00
1.630639347505494516e+04	-2.720647935666318240e+00	3.684859987519603663e+01	-2.720590940542608749e+00
1.630641521418537195e+04	-2.721220863525185774e+00	3.688383296718396309e+01	-2.721163327557104772e+00
1.630643695331579875e+04	-2.721799186598603093e+00	3.691939474954735090e+01	-2.721741112194902001e+00
1.630645869244622554e+04	-2.722382880672774785e+00	3.695528383626145796e+01	-2.722324270265149782e+00
1.630648043157665052e+04	-2.722971921305030740e+00	3.699149882781865273e+01	-2.722912777348020619e+00
1.630650217070707731e+04	-2.723566283824827128e+00	3.702803831126754375e+01	-2.723506608795710271e+00
1.630652390983750411e+04	-2.724165943334763806e+00	3.706490086025339536e+01	-2.724105739733461373e+00
1.630654564896793090e+04	-2.724770874711595070e+00	3.710208503505724309e+01	-2.724710145060563526e+00
1.630656738809835588e+04	-2.725381052607289689e+00	3.713958938263886722e+01	-2.725319799451418223e+00
1.630658912722878267e+04	-2.725996451450091396e+00	3.717741243667875750e+01	-2.725934677356592672e+00
1.630661086635920947e+04	-2.726617045445554499e+00	3.721555271761960171e+01	-2.726554753003863407e+00
1.630663260548963626e+04	-2.727242808577662991e+00	3.725400873271123459e+01	-2.727180000399320292e+00
1.630665434462006124e+04	-2.727873714609912792e+00	3.729277897605521730e+01	-2.727810393328459870e+00
1.630667608375048803e+04	-2.728509737086390441e+00	3.733186192864767605e+01	-2.728445905357260948e+00
1.630669782288091483e+04	-2.729150849332915740e+00	3.737125605842594211e+01	-2.729086509833316576e+00
1.630671956201134162e+04	-2.729797024458175514e+00	3.741095982031599476e+01	-2.729732179886978027e+00
1.630674130114176660e+04	-2.730448235354843156e+00	3.745097165627716862e+01	-2.730382888432465460e+00
1.630676304027219339e+04	-2.731104454700767459e+00	3.749128999535256668e+01	-2.731038608169060300e+00
1.630678477940262019e+04	-2.731765654960121026e+00	3.753191325371601295e+01	-2.731699311582248768e+00
1.630680651853304698e+04	-2.732431808384573113e+00	3.757283983472080280e+01	-2.732364970944897831e+00
1.630682825766347196e+04	-2.733102887014492222e+00	3.761406812895031493e+01	-2.733035558318449798e+00
1.630684999679389875e+04	-2.733778862680173560e+00	3.765559651426967491e+01	-2.733711045554153785e+00
1.630687173592432555e+04	-2.734459707003019435e+00	3.769742335587550741e+01	-2.734391404294248762e+00
1.630689347505475234e+04	-2.735145391396802239e+00	3.773954700634901371e+01	-2.735076605973210562e+00
1.630691521418517732e+04	-2.735835887068902128e+00	3.778196580570942587e+01	-2.735766621819002431e+00
1.630693695331560411e+04	-2.736531165021549583e+00	3.782467808146645893e+01	-2.736461422854314041e+00
1.630695869244603091e+04	-2.737231196053126148e+00	3.786768214867660731e+01	-2.737160979897854673e+00
1.630698043157645770e+04	-2.737935950759414538e+00	3.791097630999664858e+01	-2.737865263565609109e+00
1.630700217070688450e+04	-2.738645399534894054e+00	3.795455885573952770e+01	-2.738574244272128144e+00
1.630702390983730947e+04	-2.739359512574088384e+00	3.799842806393319705e+01	-2.739287892231868415e+00
1.630704564896773627e+04	-2.740078259872864130e+00	3.804258220037775118e+01	-2.740006177460506454e+00
1.630706738809816306e+04	-2.740801611229745749e+00	3.808701951870214231e+01	-2.740729069776239868e+00
1.630708912722858986e+04	-2.741529536247280241e+00	3.813173826042444858e+01	-2.741456538801152476e+00
1.630711086635901484e+04	-2.742262004333391179e+00	3.817673665501157387e+01	-2.742188553962567887e+00
1.630713260548944163e+04	-2.742998984702733622e+00	3.822201291993935257e+01	-2.742925084494406196e+00
1.630715434461986843e+04	-2.743740446378120090e+00	3.826756526075615739e+01	-2.743666099438601513e+00
1.630717608375029522e+04	-2.744486358191883912e+00	3.831339187114366496e+01	-2.744411567646472871e+00
1.630719782288072020e+04	-2.745236688787271895e+00	3.835949093297909229e+01	-2.745161457780111558e+00
1.630721956201114699e+04	-2.745991406619887165e+00	3.840586061640001958e+01	-2.745915738313819077e+00
1.630724130114157379e+04	-2.746750479959141344e+00	3.845249907987074067e+01	-2.746674377535563760e+00
1.630726304027200058e+04	-2.747513876889663642e+00	3.849940447024543744e+01	-2.747437343548387201e+00
1.630728477940242556e+04	-2.748281565312769015e+00	3.854657492283517684e+01	-2.748204604271869300e+00
1.630730651853285235e+04	-2.749053512947930766e+00	3.859400856147532011e+01	-2.748976127443599982e+00
1.630732825766327915e+04	-2.749829687334276684e+00	3.864170349859421094e+01	-2.749751880620676214e+00
1.630734999679370594e+04	-2.750610055832057643e+00	3.868965783528075519e+01	-2.750531831181169728e+00
1.630737173592413092e+04	-2.751394585624145961e+00	3.873786966135324406e+01	-2.751315946325620931e+00
1.630739347505455771e+04	-2.752183243717578609e+00	3.878633705543128229e+01	-2.752104193078582561e+00
1.630741521418498451e+04	-2.752975996945079107e+00	3.883505808500678569e+01	-2.752896538290140693e+00
1.630743695331541130e+04	-2.753772811966580747e+00	3.888403080651470134e+01	-2.753692948637436633e+00
1.630745869244583628e+04	-2.754573655270804444e+00	3.893325326540736597e+01	-2.754493390626243876e+00
1.630748043157626307e+04	-2.755378493176820598e+00	3.898272349622793342e+01	-2.755297830592525976e+00
1.630750217070668987e+04	-2.756187291835594522e+00	3.903243952268331185e+01	-2.756106234703988189e+00
1.630752390983711666e+04	-2.757000017231614475e+00	3.908239935772110840e+01	-2.756918568961692184e+00
1.630754564896754346e+04	-2.757816635184472620e+00	3.913260100360573546e+01	-2.757734799201652542e+00
1.630756738809796843e+04	-2.758637111350455307e+00	3.918304245199282576e+01	-2.758554891096408834e+00
1.630758912722839523e+04	-2.759461411224207961e+00	3.923372168401037641e+01	-2.759378810156699391e+00
1.630761086635882202e+04	-2.760289500140331143e+00	3.928463667033489770e+01	-2.760206521733056917e+00
1.630763260548924882e+04	-2.761121343275040552e+00	3.933578537127115027e+01	-2.761037991017457838e+00
1.630765434461967379e+04	-2.761956905647807936e+00	3.938716573683214506e+01	-2.761873183044974311e+00
1.630767608375010059e+04	-2.762796152123037530e+00	3.943877570682052891e+01	-2.762712062695445780e+00
1.630769782288052738e+04	-2.763639047411755811e+00	3.949061321091023302e+01	-2.763554594695154520e+00
1.630771956201095418e+04	-2.764485556073291050e+00	3.954267616873003277e+01	-2.764400743618528278e+00
1.630774130114137915e+04	-2.765335642516963510e+00	3.959496248994492618e+01	-2.765250473889806049e+00
1.630776304027180595e+04	-2.766189271003808070e+00	3.964747007434226589e+01	-2.766103749784777577e+00
1.630778477940223274e+04	-2.767046405648273311e+00	3.970019681191489269e+01	-2.766960535432473112e+00
1.630780651853265954e+04	-2.767907010419954350e+00	3.975314058294703301e+01	-2.767820794816892249e+00
1.630782825766308451e+04	-2.768771049145356766e+00	3.980629925810239911e+01	-2.768684491778772738e+00
1.630784999679351131e+04	-2.769638485509620107e+00	3.985967069850993028e+01	-2.769551590017310438e+00
1.630787173592393810e+04	-2.770509283058296912e+00	3.991325275585312937e+01	-2.770422053091937897e+00
1.630789347505436490e+04	-2.771383405199118855e+00	3.996704327245858224e+01	-2.771295844424089161e+00
1.630791521418478987e+04	-2.772260815203781981e+00	4.002104008138575608e+01	-2.772172927298981016e+00
1.630793695331521667e+04	-2.773141476209739054e+00	4.007524100651831134e+01	-2.773053264867413326e+00
1.630795869244564346e+04	-2.774025351221967917e+00	4.012964386265289818e+01	-2.773936820147528071e+00
1.630798043157607026e+04	-2.774912403114818016e+00	4.018424645559353081e+01	-2.774823556026655869e+00
1.630800217070649524e+04	-2.775802594633809406e+00	4.023904658224338959e+01	-2.775713435263118978e+00
1.630802390983692203e+04	-2.776695888397467726e+00	4.029404203069869084e+01	-2.776606420488057392e+00
1.630804564896734882e+04	-2.777592246899168948e+00	4.034923058034372190e+01	-2.777502474207282024e+00
1.630806738809777562e+04	-2.778491632508962361e+00	4.040461000194445518e+01	-2.778401558803091476e+00
1.630808912722820060e+04	-2.779394007475439743e+00	4.046017805774493326e+01	-2.779303636536135436e+00
1.630811086635862739e+04	-2.780299333927614303e+00	4.051593250156549431e+01	-2.780208669547305167e+00
1.630813260548905419e+04	-2.781207573876774752e+00	4.057187107889840405e+01	-2.781116619859574257e+00
1.630815434461948098e+04	-2.782118689218367802e+00	4.062799152700675620e+01	-2.782027449379892658e+00
1.630817608374990778e+04	-2.783032641733884205e+00	4.068429157502230709e+01	-2.782941119901057636e+00
1.630819782288033275e+04	-2.783949393092755464e+00	4.074076894404579718e+01	-2.783857593103623351e+00
1.630821956201075955e+04	-2.784868904854274074e+00	4.079742134724757818e+01	-2.784776830557809113e+00
1.630824130114118634e+04	-2.785791138469491557e+00	4.085424648996807662e+01	-2.785698793725404077e+00
1.630826304027161314e+04	-2.786716055283152915e+00	4.091124206982012623e+01	-2.786623443961697699e+00
1.630828477940203811e+04	-2.787643616535610658e+00	4.096840577679065376e+01	-2.787550742517394209e+00
1.630830651853246491e+04	-2.788573783364774794e+00	4.102573529334485158e+01	-2.788480650540562156e+00
1.630832825766289170e+04	-2.789506516808031300e+00	4.108322829452819036e+01	-2.789413129078551101e+00
1.630834999679331850e+04	-2.790441777804223200e+00	4.114088244807274464e+01	-2.790348139079970036e+00
1.630837173592374347e+04	-2.791379527195587240e+00	4.119869541450160710e+01	-2.791285641396628936e+00
1.630839347505417027e+04	-2.792319725729730084e+00	4.125666484723498684e+01	-2.792225596785506969e+00
1.630841521418459706e+04	-2.793262334061600960e+00	4.131478839269734493e+01	-2.793167965910733130e+00
1.630843695331502386e+04	-2.794207312755436323e+00	4.137306369042244114e+01	-2.794112709345525580e+00
1.630845869244544883e+04	-2.795154622286786683e+00	4.143148837316329036e+01	-2.795059787574210919e+00
1.630848043157587563e+04	-2.796104223044497683e+00	4.149006006700110305e+01	-2.796009160994218590e+00
1.630850217070630242e+04	-2.797056075332673419e+00	4.154877639145176715e+01	-2.796960789918035761e+00
1.630852390983672922e+04	-2.798010139372710814e+00	4.160763495957786517e+01	-2.797914634575239923e+00
1.630854564896715419e+04	-2.798966375305304677e+00	4.166663337809880829e+01	-2.798870655114506167e+00
1.630856738809758099e+04	-2.799924743192433674e+00	4.172576924750046601e+01	-2.799828811605593160e+00
1.630858912722800778e+04	-2.800885203019396474e+00	4.178504016214763084e+01	-2.800789064041378840e+00
