# time(us)	tip(nm)	Fts(nN)	Xb(nm)
1.630437173592529507e+04	-7.122985317381520076e+00	1.971352674410330224e+02	-7.122985392058296839e+00
1.630439347505572005e+04	-7.122986780701279663e+00	1.971358573276769164e+02	-7.122986453543619589e+00
1.630441521418614684e+04	-7.122992262346675929e+00	1.971368415100942286e+02	-7.122991533360426786e+00
1.630443695331657364e+04	-7.123001762169485218e+00	1.971382199489814013e+02	-7.123000631376823044e+00
1.630445869244700043e+04	-7.123015279858203819e+00	1.971399925893459226e+02	-7.123013747297614273e+00
1.630448043157742541e+04	-7.123032814938071944e+00	1.971421593605143414e+02	-7.123030880664386721e+00
1.630450217070785220e+04	-7.123054366771151891e+00	1.971447201761328643e+02	-7.123052030855496319e+00
1.630452390983827900e+04	-7.123079934556386661e+00	1.971476749341836694e+02	-7.123077197086227663e+00
1.630454564896870579e+04	-7.123109517329310414e+00	1.971510235169488112e+02	-7.123106378408425421e+00
1.630456738809913077e+04	-7.123143113962556505e+00	1.971547657910630846e+02	-7.123139573711020134e+00
1.630458912722955756e+04	-7.123180723165581263e+00	1.971589016074908614e+02	-7.123176781719787520e+00
1.630461086635998436e+04	-7.123222343484850505e+00	1.971634308015402155e+02	-7.123218000997487920e+00
1.630463260549041115e+04	-7.123267973303867961e+00	1.971683531928672153e+02	-7.123263229943905372e+00
1.630465434462083795e+04	-7.123317610843410641e+00	1.971736685855018720e+02	-7.123312466796105191e+00
1.630467608375126292e+04	-7.123371254161288135e+00	1.971793767678244933e+02	-7.123365709628197706e+00
1.630469782288168972e+04	-7.123428901152498938e+00	1.971854775125759147e+02	-7.123422956351429747e+00
1.630471956201211651e+04	-7.123490549549567952e+00	1.971919705768951587e+02	-7.123484204714573664e+00
1.630474130114254331e+04	-7.123556196922589123e+00	1.971988557023253179e+02	-7.123549452303981511e+00
1.630476304027296828e+04	-7.123625840679158827e+00	1.972061326148030673e+02	-7.123618696543483786e+00
1.630478477940339508e+04	-7.123699478064404289e+00	1.972138010246658268e+02	-7.123691934694457828e+00
1.630480651853382187e+04	-7.123777106161350403e+00	1.972218606266788754e+02	-7.123769163856103148e+00
1.630482825766424867e+04	-7.123858721891185297e+00	1.972303111000717024e+02	-7.123850380965819795e+00
1.630484999679467364e+04	-7.123944322013039177e+00	1.972391521085101544e+02	-7.123935582798919697e+00
1.630487173592510044e+04	-7.124033903124312062e+00	1.972483833001296318e+02	-7.124024765968976602e+00
1.630489347505552723e+04	-7.124127461660730631e+00	1.972580043075409151e+02	-7.124117926927878486e+00
1.630491521418595403e+04	-7.124224993896539182e+00	1.972680147478454273e+02	-7.124215061965997187e+00
1.630493695331637900e+04	-7.124326495944790061e+00	1.972784142226672941e+02	-7.124316167212515261e+00
1.630495869244680580e+04	-7.124431963757349884e+00	1.972892023181501884e+02	-7.124421238635394893e+00
1.630498043157723259e+04	-7.124541393125159772e+00	1.973003786049849850e+02	-7.124530272041678991e+00
1.630500217070765939e+04	-7.124654779678379235e+00	1.973119426384181168e+02	-7.124643263077572009e+00
1.630502390983808436e+04	-7.124772118886689931e+00	1.973238939582866749e+02	-7.124760207228805875e+00
1.630504564896851116e+04	-7.124893406059387146e+00	1.973362320890241506e+02	-7.124881099820712826e+00
1.630506738809893795e+04	-7.125018636345589407e+00	1.973489565396789942e+02	-7.125005936018420805e+00
1.630508912722936475e+04	-7.125147804734397461e+00	1.973620668039291388e+02	-7.125134710827008000e+00
1.630511086635978972e+04	-7.125280906055226460e+00	1.973755623601154525e+02	-7.125267419091859011e+00
1.630513260549021652e+04	-7.125417934978088397e+00	1.973894426712646748e+02	-7.125404055498906430e+00
1.630515434462064331e+04	-7.125558886013733328e+00	1.974037071851081180e+02	-7.125544614574833346e+00
1.630517608375107011e+04	-7.125703753513858985e+00	1.974183553340928370e+02	-7.125689090687198579e+00
1.630519782288149690e+04	-7.125852531671476697e+00	1.974333865354257682e+02	-7.125837478044902085e+00
1.630521956201192188e+04	-7.126005214521129894e+00	1.974488001910850414e+02	-7.125989770698312853e+00
1.630524130114234868e+04	-7.126161795938996235e+00	1.974645956878356401e+02	-7.126145962539436773e+00
1.630526304027277547e+04	-7.126322269643344143e+00	1.974807723972645590e+02	-7.126306047302302105e+00
1.630528477940320226e+04	-7.126486629194687339e+00	1.974973296758062133e+02	-7.126470018563220599e+00
1.630530651853362724e+04	-7.126654867996180975e+00	1.975142668647633855e+02	-7.126637869741026421e+00
1.630532825766405404e+04	-7.126826979294003550e+00	1.975315832903594924e+02	-7.126809594097617051e+00
1.630534999679448083e+04	-7.127002956177390658e+00	1.975492782637301161e+02	-7.126985184737892887e+00
1.630537173592490763e+04	-7.127182791579139476e+00	1.975673510809735660e+02	-7.127164634610282157e+00
1.630539347505533260e+04	-7.127366478275845907e+00	1.975858010231729338e+02	-7.127347936506992276e+00
1.630541521418575940e+04	-7.127554008888187909e+00	1.976046273564211901e+02	-7.127535083064278965e+00
1.630543695331618619e+04	-7.127745375881136880e+00	1.976238293318412502e+02	-7.127726066762669177e+00
1.630545869244661299e+04	-7.127940571564639782e+00	1.976434061856440678e+02	-7.127920879927578390e+00
1.630548043157703796e+04	-7.128139588093796775e+00	1.976633571391557780e+02	-7.128119514729604589e+00
1.630550217070746476e+04	-7.128342417469188064e+00	1.976836813988368533e+02	-7.128321963184746757e+00
1.630552390983789155e+04	-7.128549051537008907e+00	1.977043781563020275e+02	-7.128528217154625146e+00
1.630554564896831835e+04	-7.128759481989794367e+00	1.977254465883804642e+02	-7.128738268347123430e+00
1.630556738809874332e+04	-7.128973700366793231e+00	1.977468858571550356e+02	-7.128952108316806147e+00
1.630558912722917012e+04	-7.129191698054022197e+00	1.977686951099666430e+02	-7.129169728464995082e+00
1.630561086635959691e+04	-7.129413466284823642e+00	1.977908734794633290e+02	-7.129391120040279084e+00
1.630563260549002371e+04	-7.129638996140205798e+00	1.978134200836341279e+02	-7.129616274138895982e+00
1.630565434462044868e+04	-7.129868278549182037e+00	1.978363340258353844e+02	-7.129845181705026569e+00
1.630567608375087548e+04	-7.130101304289304665e+00	1.978596143948438737e+02	-7.130077833531353271e+00
1.630569782288130227e+04	-7.130338063987080588e+00	1.978832602648942043e+02	-7.130314220259471369e+00
1.630571956201172907e+04	-7.130578548118252868e+00	1.979072706957045398e+02	-7.130554332380181215e+00
1.630574130114215404e+04	-7.130822747008213724e+00	1.979316447325143997e+02	-7.130798160233894123e+00
1.630576304027258084e+04	-7.131070650832590729e+00	1.979563814061357050e+02	-7.131045694011186598e+00
1.630578477940300763e+04	-7.131322249617678466e+00	1.979814797329961777e+02	-7.131296923753269290e+00
1.630580651853343443e+04	-7.131577533240711197e+00	1.980069387151651199e+02	-7.131551839352272104e+00
1.630582825766386122e+04	-7.131836491430315839e+00	1.980327573403894519e+02	-7.131810430551654534e+00
1.630584999679428620e+04	-7.132099113767075060e+00	1.980589345821491349e+02	-7.132072686946783868e+00
1.630587173592471299e+04	-7.132365389683963386e+00	1.980854693996960805e+02	-7.132338597985373063e+00
1.630589347505513979e+04	-7.132635308466775292e+00	1.981123607380939688e+02	-7.132608152967915061e+00
1.630591521418556658e+04	-7.132908859254587064e+00	1.981396075282607114e+02	-7.132881341048142865e+00
1.630593695331599156e+04	-7.133186031040268382e+00	1.981672086870122769e+02	-7.133158151233512712e+00
1.630595869244641835e+04	-7.133466812670962831e+00	1.981951631171111785e+02	-7.133438572385728094e+00
1.630598043157684515e+04	-7.133751192848544420e+00	1.982234697073045311e+02	-7.133722593221158981e+00
1.630600217070727194e+04	-7.134039160130269508e+00	1.982521273323869195e+02	-7.134010202311514171e+00
1.630602390983769692e+04	-7.134330702929030821e+00	1.982811348532215732e+02	-7.134301388084095308e+00
1.630604564896812371e+04	-7.134625809513891248e+00	1.983104911167889668e+02	-7.134596138822323574e+00
1.630606738809855051e+04	-7.134924468010773957e+00	1.983401949562492064e+02	-7.134894442666405823e+00
1.630608912722897730e+04	-7.135226666402952667e+00	1.983702451909901185e+02	-7.135196287613867483e+00
1.630611086635940228e+04	-7.135532392531381163e+00	1.984006406266552460e+02	-7.135501661519864314e+00
1.630613260548982907e+04	-7.135841634095469566e+00	1.984313800552147882e+02	-7.135810552097945347e+00
1.630615434462025587e+04	-7.136154378653400521e+00	1.984624622549945059e+02	-7.136122946920382404e+00
1.630617608375068266e+04	-7.136470613622843295e+00	1.984938859907405515e+02	-7.136438833418863759e+00
1.630619782288110764e+04	-7.136790326281643893e+00	1.985256500136856630e+02	-7.136758198885213567e+00
1.630621956201153444e+04	-7.137113503767969824e+00	1.985577530615614137e+02	-7.137081030471541077e+00
1.630624130114196123e+04	-7.137440133081003779e+00	1.985901938586553683e+02	-7.137407315190873902e+00
1.630626304027238803e+04	-7.137770201081809596e+00	1.986229711158998441e+02	-7.137737039918088833e+00
1.630628477940281300e+04	-7.138103694493591611e+00	1.986560835308908679e+02	-7.138070191390145425e+00
1.630630651853323980e+04	-7.138440599902409645e+00	1.986895297879520683e+02	-7.138406756206784998e+00
1.630632825766366659e+04	-7.138780903757641738e+00	1.987233085581823104e+02	-7.138746720831036008e+00
1.630634999679409339e+04	-7.139124592372684042e+00	1.987574184995129087e+02	-7.139090071589857089e+00
1.630637173592452018e+04	-7.139471651925583195e+00	1.987918582567708654e+02	-7.139436794674802300e+00
1.630639347505494516e+04	-7.139822068459559468e+00	1.988266264617266188e+02	-7.139786876142557581e+00
1.630641521418537195e+04	-7.140175827883536108e+00	1.988617217331392908e+02	-7.140140301915439025e+00
1.630643695331579875e+04	-7.140532915972861439e+00	1.988971426768259221e+02	-7.140497057782138057e+00
1.630645869244622554e+04	-7.140893318370032716e+00	1.989328878857230052e+02	-7.140857129398388459e+00
1.630648043157665052e+04	-7.141257020585063842e+00	1.989689559399294012e+02	-7.141220502287443317e+00
1.630650217070707731e+04	-7.141624007996317580e+00	1.990053454067724203e+02	-7.141587161840791786e+00
1.630652390983750411e+04	-7.141994265851014489e+00	1.990420548408609704e+02	-7.141957093318741734e+00
1.630654564896793090e+04	-7.142367779265978101e+00	1.990790827841518933e+02	-7.142330281851129392e+00
1.630656738809835588e+04	-7.142744533228204240e+00	1.991164277660014079e+02	-7.142706712437897565e+00
1.630658912722878267e+04	-7.143124512595536935e+00	1.991540883032295994e+02	-7.143086369949786629e+00
1.630661086635920947e+04	-7.143507702097272372e+00	1.991920629001728003e+02	-7.143469239128906523e+00
1.630663260548963626e+04	-7.143894086334961813e+00	1.992303500487594761e+02	-7.143855304589564525e+00
1.630665434462006124e+04	-7.144283649782920520e+00	1.992689482285558142e+02	-7.144244550818758199e+00
1.630667608375048803e+04	-7.144676376789024452e+00	1.993078559068399898e+02	-7.144636962176986295e+00
1.630669782288091483e+04	-7.145072251575260935e+00	1.993470715386525001e+02	-7.145032522898793204e+00
1.630671956201134162e+04	-7.145471258238497825e+00	1.993865935668648888e+02	-7.145431217093521248e+00
1.630674130114176660e+04	-7.145873380751262438e+00	1.994264204222531021e+02	-7.145833028746101157e+00
1.630676304027219339e+04	-7.146278602962239823e+00	1.994665505235465730e+02	-7.146237941717582309e+00
1.630678477940262019e+04	-7.146686908596985965e+00	1.995069822774872819e+02	-7.146645939745797094e+00
1.630680651853304698e+04	-7.147098281258721819e+00	1.995477140789050736e+02	-7.147057006446158489e+00
1.630682825766347196e+04	-7.147512704429011876e+00	1.995887443107832269e+02	-7.147471125312373275e+00
1.630684999679389875e+04	-7.147930161468480037e+00	1.996300713443209531e+02	-7.147888279717129478e+00
1.630687173592432555e+04	-7.148350635617548576e+00	1.996716935390027174e+02	-7.148308452912835342e+00
1.630689347505475234e+04	-7.148774109997056314e+00	1.997136092426540017e+02	-7.148731628032241936e+00
1.630691521418517732e+04	-7.149200567609165446e+00	1.997558167915289005e+02	-7.149157788089373966e+00
1.630693695331560411e+04	-7.149629991337850932e+00	1.997983145103485754e+02	-7.149586915979968538e+00
1.630695869244603091e+04	-7.150062363949885480e+00	1.998411007123973775e+02	-7.150018994482493007e+00
1.630698043157645770e+04	-7.150497668095416870e+00	1.998841736995746032e+02	-7.150454006258725848e+00
1.630700217070688450e+04	-7.150935886308808165e+00	1.999275317624706645e+02	-7.150891933854565785e+00
1.630702390983730947e+04	-7.151377001009332268e+00	1.999711731804346471e+02	-7.151332759700774311e+00
1.630704564896773627e+04	-7.151820994501809636e+00	2.000150962216303583e+02	-7.151776466113585862e+00
1.630706738809816306e+04	-7.152267848977523101e+00	2.000592991431186078e+02	-7.152223035295591558e+00
1.630708912722858986e+04	-7.152717546514964830e+00	2.001037801909296832e+02	-7.152672449336522575e+00
1.630711086635901484e+04	-7.153170069080605487e+00	2.001485376001355689e+02	-7.153124690214029080e+00
1.630713260548944163e+04	-7.153625398529628754e+00	2.001935695949150329e+02	-7.153579739794389880e+00
1.630715434461986843e+04	-7.154083516606648097e+00	2.002388743886203315e+02	-7.154037579833231852e+00
1.630717608375029522e+04	-7.154544404946673986e+00	2.002844501838672500e+02	-7.154498191976498056e+00
1.630719782288072020e+04	-7.155008045075692102e+00	2.003302951725885350e+02	-7.154961557761031266e+00
1.630721956201114699e+04	-7.155474418411539972e+00	2.003764075361160906e+02	-7.155427658615461262e+00
1.630724130114157379e+04	-7.155943506264718756e+00	2.004227854452529698e+02	-7.155896475860971329e+00
1.630726304027200058e+04	-7.156415289839243243e+00	2.004694270603570772e+02	-7.156367990712211302e+00
1.630728477940242556e+04	-7.156889750233291991e+00	2.005163305313958233e+02	-7.156842184277882879e+00
1.630730651853285235e+04	-7.157366868440062646e+00	2.005634939980311628e+02	-7.157319037561665098e+00
1.630732825766327915e+04	-7.157846625348492253e+00	2.006109155896818095e+02	-7.157798531462876035e+00
1.630734999679370594e+04	-7.158329001744256459e+00	2.006585934256162886e+02	-7.158280646777480882e+00
1.630737173592413092e+04	-7.158813978310616832e+00	2.007065256150325183e+02	-7.158765364198933945e+00
1.630739347505455771e+04	-7.159301535629136737e+00	2.007547102571288917e+02	-7.159252664318951354e+00
1.630741521418498451e+04	-7.159791654180368781e+00	2.008031454411623429e+02	-7.159742527628147890e+00
1.630743695331541130e+04	-7.160284314344829149e+00	2.008518292465381307e+02	-7.160234934516993555e+00
1.630745869244583628e+04	-7.160779496403938182e+00	2.009007597429013856e+02	-7.160729865276788786e+00
1.630748043157626307e+04	-7.161277180540503551e+00	2.009499349901824985e+02	-7.161227300100170723e+00
1.630750217070668987e+04	-7.161777346839919289e+00	2.009993530387004057e+02	-7.161727219082210105e+00
1.630752390983711666e+04	-7.162279975290947398e+00	2.010490119292497297e+02	-7.162229602221338531e+00
1.630754564896754346e+04	-7.162785045786265847e+00	2.010989096931365623e+02	-7.162734429419762350e+00
1.630756738809796843e+04	-7.163292538123693376e+00	2.011490443523039744e+02	-7.163241680484771834e+00
1.630758912722839523e+04	-7.163802432006896481e+00	2.011994139193909348e+02	-7.163751335129395770e+00
1.630761086635882202e+04	-7.164314707046224306e+00	2.012500163978148748e+02	-7.164263372973284305e+00
1.630763260548924882e+04	-7.164829342759523989e+00	2.013008497818464093e+02	-7.164777773543499428e+00
1.630765434461967379e+04	-7.165346318573122986e+00	2.013519120566980973e+02	-7.165294516275476866e+00
1.630767608375010059e+04	-7.165865613822653302e+00	2.014032011986055579e+02	-7.165813580513883174e+00
1.630769782288052738e+04	-7.166387207753746047e+00	2.014547151748903389e+02	-7.166334945513306742e+00
1.630771956201095418e+04	-7.166911079523170969e+00	2.015064519440651623e+02	-7.166858590439360022e+00
1.630774130114137915e+04	-7.167437208199618937e+00	2.015584094559105210e+02	-7.167384494369509085e+00
1.630776304027180595e+04	-7.167965572764487092e+00	2.016105856515459038e+02	-7.167912636293837458e+00
1.630778477940223274e+04	-7.168496152112838971e+00	2.016629784635202327e+02	-7.168442995116008909e+00
1.630780651853265954e+04	-7.169028925054263368e+00	2.017155858158903641e+02	-7.168975549654107660e+00
1.630782825766308451e+04	-7.169563870313866438e+00	2.017684056243181203e+02	-7.169510278641660683e+00
1.630784999679351131e+04	-7.170100966532953812e+00	2.018214357961306291e+02	-7.170047160728301172e+00
1.630787173592393810e+04	-7.170640192270107072e+00	2.018746742304239490e+02	-7.170586174480859221e+00
1.630789347505436490e+04	-7.171181526001893403e+00	2.019281188181272739e+02	-7.171127298384052828e+00
1.630791521418478987e+04	-7.171724946124040656e+00	2.019817674421114475e+02	-7.171670510841635426e+00
1.630793695331521667e+04	-7.172270430952243814e+00	2.020356179772741712e+02	-7.172215790177300043e+00
1.630795869244564346e+04	-7.172817958722854215e+00	2.020896682905932380e+02	-7.172763114635263726e+00
1.630798043157607026e+04	-7.173367507594091919e+00	2.021439162412479220e+02	-7.173312462381537635e+00
1.630800217070649524e+04	-7.173919055646721610e+00	2.021983596806795163e+02	-7.173863811504580745e+00
1.630802390983692203e+04	-7.174472580884977191e+00	2.022529964526791559e+02	-7.174417140016237759e+00
1.630804564896734882e+04	-7.175028061237710197e+00	2.023078243934949967e+02	-7.174972425852860880e+00
1.630806738809777562e+04	-7.175585474558955568e+00	2.023628413318899675e+02	-7.175529646875937750e+00
1.630808912722820060e+04	-7.176144798629085386e+00	2.024180450892408487e+02	-7.176088780873141282e+00
1.630811086635862739e+04	-7.176706011155809861e+00	2.024734334796424946e+02	-7.176649805559413231e+00
1.630813260548905419e+04	-7.177269089774899413e+00	2.025290043099730042e+02	-7.177212698577681849e+00
1.630815434461948098e+04	-7.177834012051264700e+00	2.025847553799940499e+02	-7.177777437499904600e+00
1.630817608374990778e+04	-7.178400755479703577e+00	2.026406844824226425e+02	-7.178343999827841770e+00
1.630819782288033275e+04	-7.178969297486075263e+00	2.026967894030414925e+02	-7.178912362994208429e+00
1.630821956201075955e+04	-7.179539615427983357e+00	2.027530679207657727e+02	-7.179482504363398299e+00
1.630824130114118634e+04	-7.180111686595830989e+00	2.028095178077381036e+02	-7.180054401232474959e+00
1.630826304027161314e+04	-7.180685488213821799e+00	2.028661368294290526e+02	-7.180628030832231445e+00
1.630828477940203811e+04	-7.181260997440779725e+00	2.029229227447121673e+02	-7.181203370327989610e+00
1.630830651853246491e+04	-7.181838191371205049e+00	2.029798733059618030e+02	-7.181780396820628631e+00
1.630832825766289170e+04	-7.182417047036104840e+00	2.030369862591378194e+02	-7.182359087347476745e+00
1.630834999679331850e+04	-7.182997541403998376e+00	2.030942593438740857e+02	-7.182939418883245608e+00
1.630837173592374347e+04	-7.183579651381940323e+00	2.031516902935804012e+02	-7.183521368341100555e+00
1.630839347505417027e+04	-7.184163353816360953e+00	2.032092768355209955e+02	-7.184104912573491042e+00
1.630841521418459706e+04	-7.184748625494031593e+00	2.032670166909069849e+02	-7.184690028373115211e+00
1.630843695331502386e+04	-7.185335443142935041e+00	2.033249075749770896e+02	-7.185276692473786753e+00
1.630845869244544883e+04	-7.185923783433377565e+00	2.033829471971044143e+02	-7.185864881551536243e+00
1.630848043157587563e+04	-7.186513622978969451e+00	2.034411332608903820e+02	-7.186454572225601467e+00
1.630850217070630242e+04	-7.187104938337371962e+00	2.034994634642362996e+02	-7.187045741059196580e+00
1.630852390983672922e+04	-7.187697706011498155e+00	2.035579354994563062e+02	-7.187638364560667625e+00
1.630854564896715419e+04	-7.188291902450215431e+00	2.036165470533462099e+02	-7.188232419184238609e+00
1.630856738809758099e+04	-7.188887504049629840e+00	2.036752958073024615e+02	-7.188827881331245173e+00
1.630858912722800778e+04	-7.189484487153954717e+00	2.037341794374102335e+02	-7.189424727351053868e+00
