# time(us)	tip(nm)	Fts(nN)	Xb(nm)
1.630437173592529507e+04	-8.324994016911436034e+00	2.527774550290860418e+02	-8.324994038477997904e+00
1.630439347505572005e+04	-8.324995844198085138e+00	2.527780452288848494e+02	-8.324995494318484290e+00
1.630441521418614684e+04	-8.325001385928352704e+00	2.527790294602608014e+02	-8.325000664608101175e+00
1.630443695331657364e+04	-8.325010641964812663e+00	2.527804076838277183e+02	-8.325009549224406058e+00
1.630445869244700043e+04	-8.325023612020000741e+00	2.527821798445485797e+02	-8.325022147894927116e+00
1.630448043157742541e+04	-8.325040295656602751e+00	2.527843458717549936e+02	-8.325038460197335510e+00
1.630450217070785220e+04	-8.325060692287600261e+00	2.527869056791621460e+02	-8.325058485559575061e+00
1.630452390983827900e+04	-8.325084801176060978e+00	2.527898591648553293e+02	-8.325082223259730796e+00
1.630454564896870579e+04	-8.325112621435213356e+00	2.527932062112849678e+02	-8.325109672425980989e+00
1.630456738809913077e+04	-8.325144152028615352e+00	2.527969466852973710e+02	-8.325140832036865390e+00
1.630458912722955756e+04	-8.325179391770058501e+00	2.528010804381197261e+02	-8.325175700921152000e+00
1.630461086635998436e+04	-8.325218339323761541e+00	2.528056073053795672e+02	-8.325214277758002268e+00
1.630463260549041115e+04	-8.325260993204347315e+00	2.528105271071083848e+02	-8.325256561077006623e+00
1.630465434462083795e+04	-8.325307351776816134e+00	2.528158396477348333e+02	-8.325302549258116969e+00
1.630467608375126292e+04	-8.325357413256847749e+00	2.528215447161174438e+02	-8.325352240531945114e+00
1.630469782288168972e+04	-8.325411175710700107e+00	2.528276420855369793e+02	-8.325405632979691717e+00
1.630471956201211651e+04	-8.325468637055228882e+00	2.528341315136977130e+02	-8.325462724533149839e+00
1.630474130114254331e+04	-8.325529795058166371e+00	2.528410127427521275e+02	-8.325523512974939422e+00
1.630476304027296828e+04	-8.325594647338229848e+00	2.528482854993224862e+02	-8.325587995938706243e+00
1.630478477940339508e+04	-8.325663191364883531e+00	2.528559494944682058e+02	-8.325656170908811049e+00
1.630480651853382187e+04	-8.325735424458917677e+00	2.528640044237480424e+02	-8.325728035220917533e+00
1.630482825766424867e+04	-8.325811343792256736e+00	2.528724499672030959e+02	-8.325803586061827133e+00
1.630484999679467364e+04	-8.325890946388179614e+00	2.528812857893773014e+02	-8.325882820469677981e+00
1.630487173592510044e+04	-8.325974229121371195e+00	2.528905115393255585e+02	-8.325965735334012408e+00
1.630489347505552723e+04	-8.326061188718185235e+00	2.529001268506363544e+02	-8.326052327396000763e+00
1.630491521418595403e+04	-8.326151821756708316e+00	2.529101313414458048e+02	-8.326142593248567536e+00
1.630493695331637900e+04	-8.326246124666869974e+00	2.529205246144426269e+02	-8.326236529336437542e+00
1.630495869244680580e+04	-8.326344093730646989e+00	2.529313062568913324e+02	-8.326334131956370399e+00
1.630498043157723259e+04	-8.326445725082209037e+00	2.529424758406506726e+02	-8.326435397257325732e+00
1.630500217070765939e+04	-8.326551014708169163e+00	2.529540329221942159e+02	-8.326540321240653242e+00
1.630502390983808436e+04	-8.326659958447585552e+00	2.529659770426163448e+02	-8.326648899760170863e+00
1.630504564896851116e+04	-8.326772551992254634e+00	2.529783077276559595e+02	-8.326761128522376154e+00
1.630506738809893795e+04	-8.326888790886918912e+00	2.529910244877222567e+02	-8.326877003086709195e+00
1.630508912722936475e+04	-8.327008670529519208e+00	2.530041268179223835e+02	-8.326996518865797725e+00
1.630511086635978972e+04	-8.327132186171139594e+00	2.530176141980518025e+02	-8.327119671125393197e+00
1.630513260549021652e+04	-8.327259332916426615e+00	2.530314860926373228e+02	-8.327246454984768675e+00
1.630515434462064331e+04	-8.327390105723763369e+00	2.530457419509602630e+02	-8.327376865416942664e+00
1.630517608375107011e+04	-8.327524499405395630e+00	2.530603812070625338e+02	-8.327510897248755484e+00
1.630519782288149690e+04	-8.327662508627616589e+00	2.530754032797694606e+02	-8.327648545161080662e+00
1.630521956201192188e+04	-8.327804127911281995e+00	2.530908075727408857e+02	-8.327789803689315207e+00
1.630524130114234868e+04	-8.327949351631732000e+00	2.531065934744640344e+02	-8.327934667223328091e+00
1.630526304027277547e+04	-8.328098174019375577e+00	2.531227603583134567e+02	-8.328083130008019808e+00
1.630528477940320226e+04	-8.328250589159534201e+00	2.531393075825355083e+02	-8.328235186143206903e+00
1.630530651853362724e+04	-8.328406590993029823e+00	2.531562344903065878e+02	-8.328390829584154886e+00
1.630532825766405404e+04	-8.328566173316136911e+00	2.531735404097296396e+02	-8.328550054141578229e+00
1.630534999679448083e+04	-8.328729329781134894e+00	2.531912246538871898e+02	-8.328712853482134193e+00
1.630537173592490763e+04	-8.328896053896501783e+00	2.532092865208663284e+02	-8.328879221128678623e+00
1.630539347505533260e+04	-8.329066339026999444e+00	2.532277252937655874e+02	-8.329049150460337003e+00
1.630541521418575940e+04	-8.329240178394158534e+00	2.532465402407387955e+02	-8.329222634712932560e+00
1.630543695331618619e+04	-8.329417565076614238e+00	2.532657306150363468e+02	-8.329399666979394823e+00
1.630545869244661299e+04	-8.329598492010145350e+00	2.532852956550067063e+02	-8.329580240209759623e+00
1.630548043157703796e+04	-8.329782951988379480e+00	2.533052345841654756e+02	-8.329764347211867204e+00
1.630550217070746476e+04	-8.329970937662718455e+00	2.533255466111910721e+02	-8.329951980651319587e+00
1.630552390983789155e+04	-8.330162441542871221e+00	2.533462309299785034e+02	-8.330143133051988613e+00
1.630554564896831835e+04	-8.330357455997150495e+00	2.533672867196666232e+02	-8.330337796796310812e+00
1.630556738809874332e+04	-8.330555973252669943e+00	2.533887131446597323e+02	-8.330535964125497017e+00
1.630558912722917012e+04	-8.330757985395720766e+00	2.534105093546679655e+02	-8.330737627139916057e+00
1.630561086635959691e+04	-8.330963484372226446e+00	2.534326744847475652e+02	-8.330942777799505095e+00
1.630563260549002371e+04	-8.331172461988016309e+00	2.534552076553339077e+02	-8.331151407924096475e+00
1.630565434462044868e+04	-8.331384909909159475e+00	2.534781079722721415e+02	-8.331363509193705497e+00
1.630567608375087548e+04	-8.331600819662373425e+00	2.535013745268587684e+02	-8.331579073148967396e+00
1.630569782288130227e+04	-8.331820182635434335e+00	2.535250063958874307e+02	-8.331798091191554789e+00
1.630571956201172907e+04	-8.332042990077312083e+00	2.535490026416560170e+02	-8.332020554584291361e+00
1.630574130114215404e+04	-8.332269233098728023e+00	2.535733623120250400e+02	-8.332246454451697204e+00
1.630576304027258084e+04	-8.332498902672638152e+00	2.535980844404692789e+02	-8.332475781780503965e+00
1.630578477940300763e+04	-8.332731989634398317e+00	2.536231680460905125e+02	-8.332708527419796951e+00
1.630580651853343443e+04	-8.332968484682206523e+00	2.536486121336657220e+02	-8.332944682081478760e+00
1.630582825766386122e+04	-8.333208378377593206e+00	2.536744156936923389e+02	-8.333184236340729356e+00
1.630584999679428620e+04	-8.333451661145705458e+00	2.537005777024212705e+02	-8.333427180636313381e+00
1.630587173592471299e+04	-8.333698323275836373e+00	2.537270971219061835e+02	-8.333673505271093518e+00
1.630589347505513979e+04	-8.333948354921799861e+00	2.537539729000421289e+02	-8.333923200412392873e+00
1.630591521418556658e+04	-8.334201746102452901e+00	2.537812039706239489e+02	-8.334176256092577617e+00
1.630593695331599156e+04	-8.334458486701857183e+00	2.538087892533539218e+02	-8.334432662209149356e+00
1.630595869244641835e+04	-8.334718566469955903e+00	2.538367276539152328e+02	-8.334692408525448570e+00
1.630598043157684515e+04	-8.334981975022857981e+00	2.538650180639994858e+02	-8.334955484670951265e+00
1.630600217070727194e+04	-8.335248701843365637e+00	2.538936593613573791e+02	-8.335221880141757467e+00
1.630602390983769692e+04	-8.335518736281469998e+00	2.539226504098535884e+02	-8.335491584301134793e+00
1.630604564896812371e+04	-8.335792067554644191e+00	2.539519900594917772e+02	-8.335764586379779573e+00
1.630606738809855051e+04	-8.336068684748425994e+00	2.539816771464749081e+02	-8.336040875476403045e+00
1.630608912722897730e+04	-8.336348576816858369e+00	2.540117104932496090e+02	-8.336320440558177225e+00
1.630611086635940228e+04	-8.336631732583006382e+00	2.540420889085572185e+02	-8.336603270461232285e+00
1.630613260548982907e+04	-8.336918140739454586e+00	2.540728111874883837e+02	-8.336889353891207222e+00
1.630615434462025587e+04	-8.337207789848450901e+00	2.541038761114907345e+02	-8.337178679423336902e+00
1.630617608375068266e+04	-8.337500668342956445e+00	2.541352824484758912e+02	-8.337471235503489453e+00
1.630619782288110764e+04	-8.337796764526693494e+00	2.541670289528330500e+02	-8.337767010448313698e+00
1.630621956201153444e+04	-8.338096066574804510e+00	2.541991143654803693e+02	-8.338065992445756081e+00
1.630624130114196123e+04	-8.338398562534274916e+00	2.542315374139208473e+02	-8.338368169555609555e+00
1.630626304027238803e+04	-8.338704240324648964e+00	2.542642968123070659e+02	-8.338673529710144194e+00
1.630628477940281300e+04	-8.339013087738306851e+00	2.542973912614704943e+02	-8.338982060714421607e+00
1.630630651853323980e+04	-8.339325092441223219e+00	2.543308194489995344e+02	-8.339293750247041004e+00
1.630632825766366659e+04	-8.339640241973162560e+00	2.543645800492602689e+02	-8.339608585860373680e+00
1.630634999679409339e+04	-8.339958523748437713e+00	2.543986717234660944e+02	-8.339926554981234474e+00
1.630637173592452018e+04	-8.340279925056497845e+00	2.544330931197430630e+02	-8.340247644911542579e+00
1.630639347505494516e+04	-8.340604433062397405e+00	2.544678428731765507e+02	-8.340571842828763849e+00
1.630641521418537195e+04	-8.340932034807330808e+00	2.545029196058642640e+02	-8.340899135786461471e+00
1.630643695331579875e+04	-8.341262717209071198e+00	2.545383219269607196e+02	-8.341229510714724071e+00
1.630645869244622554e+04	-8.341596467062684539e+00	2.545740484327470767e+02	-8.341562954420860265e+00
1.630648043157665052e+04	-8.341933271041018116e+00	2.546100977066821827e+02	-8.341899453589912028e+00
1.630650217070707731e+04	-8.342273115695315155e+00	2.546464683194652707e+02	-8.342238994785262207e+00
1.630652390983750411e+04	-8.342615987455703319e+00	2.546831588290831121e+02	-8.342581564449117693e+00
1.630654564896793090e+04	-8.342961872631997622e+00	2.547201677808937177e+02	-8.342927148903312329e+00
1.630656738809835588e+04	-8.343310757413874512e+00	2.547574937076405490e+02	-8.343275734349493433e+00
1.630658912722878267e+04	-8.343662627871811566e+00	2.547951351295500046e+02	-8.343627306870045501e+00
1.630661086635920947e+04	-8.344017469957515587e+00	2.548330905543725748e+02	-8.343981852428516532e+00
1.630663260548963626e+04	-8.344375269504483938e+00	2.548713584774410776e+02	-8.344339356870200675e+00
1.630665434462006124e+04	-8.344736012228684885e+00	2.549099373817384162e+02	-8.344699805922804359e+00
1.630667608375048803e+04	-8.345099683729248596e+00	2.549488257379639151e+02	-8.345063185197087563e+00
1.630669782288091483e+04	-8.345466269488953870e+00	2.549880220045913006e+02	-8.345429480187457116e+00
1.630671956201134162e+04	-8.345835754874759260e+00	2.550275246279151986e+02	-8.345798676272426775e+00
1.630674130114176660e+04	-8.346208125138590006e+00	2.550673320421288963e+02	-8.346170758715379279e+00
1.630676304027219339e+04	-8.346583365417954425e+00	2.551074426693938335e+02	-8.346545712665257355e+00
1.630678477940262019e+04	-8.346961460736496363e+00	2.551478549198889141e+02	-8.346923523157048663e+00
1.630680651853304698e+04	-8.347342396004533427e+00	2.551885671918707317e+02	-8.347304175112391533e+00
1.630682825766347196e+04	-8.347726156019799504e+00	2.552295778717393659e+02	-8.347687653340221559e+00
1.630684999679389875e+04	-8.348112725468284978e+00	2.552708853341327995e+02	-8.348073942537693526e+00
1.630687173592432555e+04	-8.348502088924538711e+00	2.553124879419555953e+02	-8.348463027290481620e+00
1.630689347505475234e+04	-8.348894230852474507e+00	2.553543840464535606e+02	-8.348854892073513057e+00
1.630691521418517732e+04	-8.349289135605960865e+00	2.553965719872810780e+02	-8.349249521251634221e+00
1.630693695331560411e+04	-8.349686787429682511e+00	2.554390500925847221e+02	-8.349646899080426010e+00
1.630695869244603091e+04	-8.350087170459584485e+00	2.554818166790495013e+02	-8.350047009706676349e+00
1.630698043157645770e+04	-8.350490268723657294e+00	2.555248700519754550e+02	-8.350449837169131584e+00
1.630700217070688450e+04	-8.350896066142599494e+00	2.555682085053515777e+02	-8.350855365399215913e+00
1.630702390983730947e+04	-8.351304546530235129e+00	2.556118303218874530e+02	-8.351263578221368888e+00
1.630704564896773627e+04	-8.351715693594695011e+00	2.556557337731423161e+02	-8.351674459354294200e+00
1.630706738809816306e+04	-8.352129490938656531e+00	2.556999171195443239e+02	-8.352087992411167505e+00
1.630708912722858986e+04	-8.352545922060281569e+00	2.557443786104875585e+02	-8.352504160900576125e+00
1.630711086635901484e+04	-8.352964970353770724e+00	2.557891164843877618e+02	-8.352922948227091027e+00
1.630713260548944163e+04	-8.353386619110079181e+00	2.558341289687528786e+02	-8.353344337691947175e+00
1.630715434461986843e+04	-8.353810851517776470e+00	2.558794142802724423e+02	-8.353768312493926373e+00
1.630717608375029522e+04	-8.354237650663570491e+00	2.559249706248722589e+02	-8.354194855729899061e+00
1.630719782288072020e+04	-8.354666999533064242e+00	2.559707961977869672e+02	-8.354623950395540177e+00
1.630721956201114699e+04	-8.355098881011333134e+00	2.560168891836217995e+02	-8.355055579385945563e+00
1.630724130114157379e+04	-8.355533277883893106e+00	2.560632477564473106e+02	-8.355489725496552111e+00
1.630726304027200058e+04	-8.355970172837448473e+00	2.561098700798784193e+02	-8.355926371423912258e+00
1.630728477940242556e+04	-8.356409548460444370e+00	2.561567543071313935e+02	-8.356365499766265970e+00
1.630730651853285235e+04	-8.356851387243825258e+00	2.562038985810996792e+02	-8.356807093024285038e+00
1.630732825766327915e+04	-8.357295671581638885e+00	2.562513010344126769e+02	-8.357251133601655724e+00
1.630734999679370594e+04	-8.357742383772098549e+00	2.562989597895470411e+02	-8.357697603806160558e+00
1.630737173592413092e+04	-8.358191506017909944e+00	2.563468729588586825e+02	-8.358146485850015850e+00
1.630739347505455771e+04	-8.358643020427374282e+00	2.563950386446924199e+02	-8.358597761850919738e+00
1.630741521418498451e+04	-8.359096909014999355e+00	2.564434549394495093e+02	-8.359051413832737865e+00
1.630743695331541130e+04	-8.359553153702194095e+00	2.564921199256530144e+02	-8.359507423726141084e+00
1.630745869244583628e+04	-8.360011736318091025e+00	2.565410316760369938e+02	-8.359965773369477660e+00
1.630748043157626307e+04	-8.360472638600310091e+00	2.565901882536169296e+02	-8.360426444509462485e+00
1.630750217070668987e+04	-8.360935842195702961e+00	2.566395877117727196e+02	-8.360889418801997763e+00
1.630752390983711666e+04	-8.361401328661056453e+00	2.566892280943180822e+02	-8.361354677812856906e+00
1.630754564896754346e+04	-8.361869079463851051e+00	2.567391074355739988e+02	-8.361822203018393296e+00
1.630756738809796843e+04	-8.362339075983197034e+00	2.567892237604671664e+02	-8.362291975806527944e+00
1.630758912722839523e+04	-8.362811299510449103e+00	2.568395750845963903e+02	-8.362763977477362332e+00
1.630761086635882202e+04	-8.363285731250057253e+00	2.568901594143131319e+02	-8.363238189244004417e+00
1.630763260548924882e+04	-8.363762352320199156e+00	2.569409747467872762e+02	-8.363714592233204570e+00
1.630765434461967379e+04	-8.364241143753909924e+00	2.569920190701250249e+02	-8.364193167486490665e+00
1.630767608375010059e+04	-8.364722086499510212e+00	2.570432903634136892e+02	-8.364673895960624606e+00
1.630769782288052738e+04	-8.365205161421545910e+00	2.570947865968115593e+02	-8.365156758528483394e+00
1.630771956201095418e+04	-8.365690349301575068e+00	2.571465057316333400e+02	-8.365641735979888693e+00
1.630774130114137915e+04	-8.366177630838967261e+00	2.571984457204316641e+02	-8.366128809022395529e+00
1.630776304027180595e+04	-8.366666986651658533e+00	2.572506045070732057e+02	-8.366617958282057899e+00
1.630778477940223274e+04	-8.367158397276975634e+00	2.573029800268207623e+02	-8.367109164304212143e+00
1.630780651853265954e+04	-8.367651843172467352e+00	2.573555702064230104e+02	-8.367602407554361577e+00
1.630782825766308451e+04	-8.368147304716703871e+00	2.574083729641903346e+02	-8.368097668418915447e+00
1.630784999679351131e+04	-8.368644762210188048e+00	2.574613862100953270e+02	-8.368594927206164158e+00
1.630787173592393810e+04	-8.369144195875916736e+00	2.575146078458266174e+02	-8.369094164146821058e+00
1.630789347505436490e+04	-8.369645585860460812e+00	2.575680357648960239e+02	-8.369595359395049172e+00
1.630791521418478987e+04	-8.370148912234609995e+00	2.576216678527142108e+02	-8.370098493029205500e+00
1.630793695331521667e+04	-8.370654154994150886e+00	2.576755019866573662e+02	-8.370603545052500039e+00
1.630795869244564346e+04	-8.371161294060993185e+00	2.577295360361948724e+02	-8.371110495394226803e+00
1.630798043157607026e+04	-8.371670309283638645e+00	2.577837678629310858e+02	-8.371619323910177712e+00
1.630800217070649524e+04	-8.372181180438182935e+00	2.578381953207097013e+02	-8.372130010383660448e+00
1.630802390983692203e+04	-8.372693887229100795e+00	2.578928162556927077e+02	-8.372642534526256952e+00
1.630804564896734882e+04	-8.373208409290146648e+00	2.579476285064565104e+02	-8.373156875978773783e+00
1.630806738809777562e+04	-8.373724726185116651e+00	2.580026299040659978e+02	-8.373673014311949103e+00
1.630808912722820060e+04	-8.374242817408859452e+00	2.580578182721823168e+02	-8.374190929027500729e+00
1.630811086635862739e+04	-8.374762662387965406e+00	2.581131914271319374e+02	-8.374710599558802926e+00
1.630813260548905419e+04	-8.375284240481496667e+00	2.581687471779831071e+02	-8.375232005271637803e+00
1.630815434461948098e+04	-8.375807530982038784e+00	2.582244833266515229e+02	-8.375755125465195405e+00
1.630817608374990778e+04	-8.376332513116434342e+00	2.582803976679764446e+02	-8.376279939372842875e+00
1.630819782288033275e+04	-8.376859166046697780e+00	2.583364879898197159e+02	-8.376806426163064145e+00
1.630821956201075955e+04	-8.377387468870905352e+00	2.583927520731485288e+02	-8.377334564940269956e+00
1.630824130114118634e+04	-8.377917400624014022e+00	2.584491876921293283e+02	-8.377864334745698471e+00
1.630826304027161314e+04	-8.378448940278692803e+00	2.585057926142072233e+02	-8.378395714558203977e+00
1.630828477940203811e+04	-8.378982066746122115e+00	2.585625646001939231e+02	-8.378928683295095325e+00
1.630830651853246491e+04	-8.379516758876865978e+00	2.586195014043501601e+02	-8.379463219812937069e+00
1.630832825766289170e+04	-8.380052995461905851e+00	2.586766007744979561e+02	-8.379999302908633041e+00
1.630834999679331850e+04	-8.380590755233392031e+00	2.587338604520988952e+02	-8.380536911320188409e+00
1.630837173592374347e+04	-8.381130016865553145e+00	2.587912781723448461e+02	-8.381076023727580093e+00
1.630839347505417027e+04	-8.381670758975385382e+00	2.588488516642321997e+02	-8.381616618753483294e+00
1.630841521418459706e+04	-8.382212960123808898e+00	2.589065786506785685e+02	-8.382158674964390599e+00
1.630843695331502386e+04	-8.382756598816381910e+00	2.589644568486000935e+02	-8.382702170871361602e+00
1.630845869244544883e+04	-8.383301653504148021e+00	2.590224839689971077e+02	-8.383247084930852466e+00
1.630848043157587563e+04	-8.383848102584414264e+00	2.590806577170341711e+02	-8.383793395545490412e+00
1.630850217070630242e+04	-8.384395924402015865e+00	2.591389757921714363e+02	-8.384341081065327828e+00
1.630852390983672922e+04	-8.384945097249786983e+00	2.591974358882169440e+02	-8.384890119788362739e+00
1.630854564896715419e+04	-8.385495599369633624e+00	2.592560356934326933e+02	-8.385440489961547783e+00
1.630856738809758099e+04	-8.386047408953476889e+00	2.593147728906348561e+02	-8.385992169781761874e+00
1.630858912722800778e+04	-8.386600504144096746e+00	2.593736451572826240e+02	-8.386545137396662852e+00
