# time(us)	tip(nm)	Fts(nN)	Xb(nm)
1.630437173592529507e+04	-9.446761835076676661e+00	3.089145685069591991e+02	-9.446761810455200248e+00
1.630439347505572005e+04	-9.446763998394882123e+00	3.089151584684841509e+02	-9.446763625208877357e+00
1.630441521418614684e+04	-9.446769647341129783e+00	3.089161423131807851e+02	-9.446768925595833366e+00
1.630443695331657364e+04	-9.446778781786065338e+00	3.089175200015918108e+02	-9.446777711500711661e+00
1.630445869244700043e+04	-9.446791401460355786e+00	3.089192914786603410e+02	-9.446789982668180485e+00
1.630448043157742541e+04	-9.446807505954524231e+00	3.089214566737151699e+02	-9.446805738702780175e+00
1.630450217070785220e+04	-9.446827094719051132e+00	3.089240155004769690e+02	-9.446824979068979999e+00
1.630452390983827900e+04	-9.446850167064525294e+00	3.089269678570834685e+02	-9.446847703091377113e+00
1.630454564896870579e+04	-9.446876722161485773e+00	3.089303136260659244e+02	-9.446873909954502935e+00
1.630456738809913077e+04	-9.446906759040615498e+00	3.089340526743749820e+02	-9.446903598703025651e+00
1.630458912722955756e+04	-9.446940276592638241e+00	3.089381848533691368e+02	-9.446936768241656068e+00
1.630461086635998436e+04	-9.446977273568476718e+00	3.089427099988359942e+02	-9.446973417335314593e+00
1.630463260549041115e+04	-9.447017748579222385e+00	3.089476279309815823e+02	-9.447013544609045965e+00
1.630465434462083795e+04	-9.447061700096329062e+00	3.089529384544619006e+02	-9.447057148548282157e+00
1.630467608375126292e+04	-9.447109126451497474e+00	3.089586413583664921e+02	-9.447104227498696716e+00
1.630469782288168972e+04	-9.447160025836835118e+00	3.089647364162349277e+02	-9.447154779666348645e+00
1.630471956201211651e+04	-9.447214396304936201e+00	3.089712233860702213e+02	-9.447208803117785436e+00
1.630474130114254331e+04	-9.447272235769018423e+00	3.089781020103490619e+02	-9.447266295780142542e+00
1.630476304027296828e+04	-9.447333542002953166e+00	3.089853720160333523e+02	-9.447327255441237526e+00
1.630478477940339508e+04	-9.447398312641318796e+00	3.089930331145712898e+02	-9.447391679749575388e+00
1.630480651853382187e+04	-9.447466545179480590e+00	3.090010850019067448e+02	-9.447459566214426729e+00
1.630482825766424867e+04	-9.447538236973809234e+00	3.090095273585055224e+02	-9.447530912206062226e+00
1.630484999679467364e+04	-9.447613385241670159e+00	3.090183598493555337e+02	-9.447605714955747302e+00
1.630487173592510044e+04	-9.447691987061700658e+00	3.090275821239919196e+02	-9.447683971555974836e+00
1.630489347505552723e+04	-9.447774039373879162e+00	3.090371938165128540e+02	-9.447765678960587721e+00
1.630491521418595403e+04	-9.447859538979601624e+00	3.090471945455862510e+02	-9.447850833984841046e+00
1.630493695331637900e+04	-9.447948482541786319e+00	3.090575839144590304e+02	-9.447939433305492685e+00
1.630495869244680580e+04	-9.448040866585046160e+00	3.090683615109776383e+02	-9.448031473460977381e+00
1.630498043157723259e+04	-9.448136687495800601e+00	3.090795269076002114e+02	-9.448126950851518657e+00
1.630500217070765939e+04	-9.448235941522614922e+00	3.090910796614364244e+02	-9.448225861739476983e+00
1.630502390983808436e+04	-9.448338624776159378e+00	3.091030193142399867e+02	-9.448328202249291152e+00
1.630504564896851116e+04	-9.448444733229365511e+00	3.091153453924309815e+02	-9.448433968367668356e+00
1.630506738809893795e+04	-9.448554262717918206e+00	3.091280574071411138e+02	-9.448543155943996297e+00
1.630508912722936475e+04	-9.448667208940035422e+00	3.091411548542040464e+02	-9.448655760690250816e+00
1.630511086635978972e+04	-9.448783567456770172e+00	3.091546372141744996e+02	-9.448771778181177083e+00
1.630513260549021652e+04	-9.448903333692307172e+00	3.091685039523692922e+02	-9.448891203854648424e+00
1.630515434462064331e+04	-9.449026502933980609e+00	3.091827545188678528e+02	-9.449014033011673419e+00
1.630517608375107011e+04	-9.449153070332478421e+00	3.091973883485328543e+02	-9.449140260816589532e+00
1.630519782288149690e+04	-9.449283030902369873e+00	3.092124048610676823e+02	-9.449269882297569367e+00
1.630521956201192188e+04	-9.449416379521952791e+00	3.092278034610056920e+02	-9.449402892346530081e+00
1.630524130114234868e+04	-9.449553110933608835e+00	3.092435835377452236e+02	-9.449539285719449566e+00
1.630526304027277547e+04	-9.449693219743952710e+00	3.092597444655619938e+02	-9.449679057036489027e+00
1.630528477940320226e+04	-9.449836700424242508e+00	3.092762856036599715e+02	-9.449822200782426407e+00
1.630530651853362724e+04	-9.449983547310578658e+00	3.092932062961934889e+02	-9.449968711306885538e+00
1.630532825766405404e+04	-9.450133754603994518e+00	3.093105058722753142e+02	-9.450118582824391211e+00
1.630534999679448083e+04	-9.450287316370683754e+00	3.093281836460014915e+02	-9.450271809414610757e+00
1.630537173592490763e+04	-9.450444226542312975e+00	3.093462389164845945e+02	-9.450428385022647149e+00
1.630539347505533260e+04	-9.450604478916419637e+00	3.093646709678977231e+02	-9.450588303459436901e+00
1.630541521418575940e+04	-9.450768067156559482e+00	3.093834790694939443e+02	-9.450751558401931263e+00
1.630543695331618619e+04	-9.450934984792468185e+00	3.094026624756205024e+02	-9.450918143393225890e+00
1.630545869244661299e+04	-9.451105225220510775e+00	3.094222204257691828e+02	-9.451088051843020921e+00
1.630548043157703796e+04	-9.451278781703855714e+00	3.094421521445933649e+02	-9.451261277027777297e+00
1.630550217070746476e+04	-9.451455647372901225e+00	3.094624568419580442e+02	-9.451437812091166180e+00
1.630552390983789155e+04	-9.451635815225378323e+00	3.094831337129509166e+02	-9.451617650044175534e+00
1.630554564896831835e+04	-9.451819278126723844e+00	3.095041819379193271e+02	-9.451800783765456515e+00
1.630556738809874332e+04	-9.452006028810357563e+00	3.095256006825033523e+02	-9.451987206001611241e+00
1.630558912722917012e+04	-9.452196059878055223e+00	3.095473890976766143e+02	-9.452176909367574709e+00
1.630561086635959691e+04	-9.452389363800044464e+00	3.095695463197547497e+02	-9.452369886346698280e+00
1.630563260549002371e+04	-9.452585932915775757e+00	3.095920714704807324e+02	-9.452566129291515296e+00
1.630565434462044868e+04	-9.452785759433865564e+00	3.096149636570196435e+02	-9.452765630423700216e+00
1.630567608375087548e+04	-9.452988835432538650e+00	3.096382219720063063e+02	-9.452968381834507383e+00
1.630569782288130227e+04	-9.453195152859850126e+00	3.096618454935684781e+02	-9.453174375484987735e+00
1.630571956201172907e+04	-9.453404703534234343e+00	3.096858332853857974e+02	-9.453383603206525265e+00
1.630574130114215404e+04	-9.453617479144755364e+00	3.097101843967207628e+02	-9.453596056701112360e+00
1.630576304027258084e+04	-9.453833471251302356e+00	3.097348978624359006e+02	-9.453811727541525656e+00
1.630578477940300763e+04	-9.454052671285186449e+00	3.097599727030608392e+02	-9.454030607171930001e+00
1.630580651853343443e+04	-9.454275070549435611e+00	3.097854079248222661e+02	-9.454252686908152015e+00
1.630582825766386122e+04	-9.454500660219109065e+00	3.098112025196835475e+02	-9.454477957938047794e+00
1.630584999679428620e+04	-9.454729431341542423e+00	3.098373554653655901e+02	-9.454706411321703641e+00
1.630587173592471299e+04	-9.454961374836987176e+00	3.098638657254152804e+02	-9.454938037992048905e+00
1.630589347505513979e+04	-9.455196481498910899e+00	3.098907322492453886e+02	-9.455172828755227243e+00
1.630591521418556658e+04	-9.455434741994332981e+00	3.099179539721644687e+02	-9.455410774290880838e+00
1.630593695331599156e+04	-9.455676146864224307e+00	3.099455298154235834e+02	-9.455651865152566060e+00
1.630595869244641835e+04	-9.455920686523937135e+00	3.099734586862606989e+02	-9.455896091768174472e+00
1.630598043157684515e+04	-9.456168351263583460e+00	3.100017394779453639e+02	-9.456143444440341383e+00
1.630600217070727194e+04	-9.456419131248356535e+00	3.100303710698089503e+02	-9.456393913346710534e+00
1.630602390983769692e+04	-9.456673016519063779e+00	3.100593523273054188e+02	-9.456647488540523838e+00
1.630604564896812371e+04	-9.456929996992487375e+00	3.100886821020507682e+02	-9.456904159950948241e+00
1.630606738809855051e+04	-9.457190062461902968e+00	3.101183592318750470e+02	-9.457163917383581975e+00
1.630608912722897730e+04	-9.457453202597392306e+00	3.101483825408635084e+02	-9.457426750520809833e+00
1.630611086635940228e+04	-9.457719406946353047e+00	3.101787508394050406e+02	-9.457692648922273904e+00
1.630613260548982907e+04	-9.457988664933978384e+00	3.102094629242494079e+02	-9.457961602025379833e+00
1.630615434462025587e+04	-9.458260965863489744e+00	3.102405175785294205e+02	-9.458233599145518866e+00
1.630617608375068266e+04	-9.458536298916818907e+00	3.102719135718355119e+02	-9.458508629476728657e+00
1.630619782288110764e+04	-9.458814653155082297e+00	3.103036496602647958e+02	-9.458786682092181763e+00
1.630621956201153444e+04	-9.459096017518803023e+00	3.103357245864567062e+02	-9.459067745944468086e+00
1.630624130114196123e+04	-9.459380380828386947e+00	3.103681370796254555e+02	-9.459351809865951921e+00
1.630626304027238803e+04	-9.459667731784826117e+00	3.104008858556510404e+02	-9.459638862569557105e+00
1.630628477940281300e+04	-9.459958058970041606e+00	3.104339696171127230e+02	-9.459928892649097421e+00
1.630630651853323980e+04	-9.460251350847443064e+00	3.104673870533450213e+02	-9.460221888579793514e+00
1.630632825766366659e+04	-9.460547595762220041e+00	3.105011368404795462e+02	-9.460517838718653039e+00
1.630634999679409339e+04	-9.460846781942057859e+00	3.105352176415101439e+02	-9.460816731305078164e+00
1.630637173592452018e+04	-9.461148897497494659e+00	3.105696281063427477e+02	-9.461118554461313224e+00
1.630639347505494516e+04	-9.461453930422392133e+00	3.106043668718387494e+02	-9.461423296192851495e+00
1.630641521418537195e+04	-9.461761868594646074e+00	3.106394325618940115e+02	-9.461730944389165288e+00
1.630643695331579875e+04	-9.462072699776401308e+00	3.106748237874667780e+02	-9.462041486823952852e+00
1.630645869244622554e+04	-9.462386411614764015e+00	3.107105391466487276e+02	-9.462354911155809845e+00
1.630648043157665052e+04	-9.462702991642213846e+00	3.107465772247115297e+02	-9.462671204928636115e+00
1.630650217070707731e+04	-9.463022427277252291e+00	3.107829365941800006e+02	-9.462990355572330259e+00
1.630652390983750411e+04	-9.463344705824841441e+00	3.108196158148741119e+02	-9.463312350403157325e+00
1.630654564896793090e+04	-9.463669814476999065e+00	3.108566134339822042e+02	-9.463637176624436265e+00
1.630656738809835588e+04	-9.463997740313132567e+00	3.108939279860881015e+02	-9.463964821326788623e+00
1.630658912722878267e+04	-9.464328470300802820e+00	3.109315579932589344e+02	-9.464295271488945005e+00
1.630661086635920947e+04	-9.464661991296166477e+00	3.109695019650929453e+02	-9.464628513978176727e+00
1.630663260548963626e+04	-9.464998290044569274e+00	3.110077583987809362e+02	-9.464964535550882019e+00
1.630665434462006124e+04	-9.465337353181055846e+00	3.110463257791658407e+02	-9.465303322853106494e+00
1.630667608375048803e+04	-9.465679167231117574e+00	3.110852025788217361e+02	-9.465644862421290995e+00
1.630669782288091483e+04	-9.466023718610813376e+00	3.111243872580677703e+02	-9.465989140682397718e+00
1.630671956201134162e+04	-9.466370993627695185e+00	3.111638782650660460e+02	-9.466336143954803717e+00
1.630674130114176660e+04	-9.466720978481369286e+00	3.112036740358839211e+02	-9.466685858448879998e+00
1.630676304027219339e+04	-9.467073659263979479e+00	3.112437729945505112e+02	-9.467038270267503108e+00
1.630678477940262019e+04	-9.467429021960798607e+00	3.112841735531139875e+02	-9.467393365406591599e+00
1.630680651853304698e+04	-9.467787052450809426e+00	3.113248741117120062e+02	-9.467751129755747286e+00
1.630682825766347196e+04	-9.468147736507267709e+00	3.113658730586271304e+02	-9.468111549098770396e+00
1.630684999679389875e+04	-9.468511059798341734e+00	3.114071687703563498e+02	-9.468474609114295504e+00
1.630687173592432555e+04	-9.468877007887739339e+00	3.114487596116837835e+02	-9.468840295376455884e+00
1.630689347505475234e+04	-9.469245566235290568e+00	3.114906439357420709e+02	-9.469208593355451953e+00
1.630691521418517732e+04	-9.469616720197414850e+00	3.115328200840614272e+02	-9.469579488418009561e+00
1.630693695331560411e+04	-9.469990455027888387e+00	3.115752863866539997e+02	-9.469952965828140279e+00
1.630695869244603091e+04	-9.470366755878497855e+00	3.116180411620853761e+02	-9.470329010747803977e+00
1.630698043157645770e+04	-9.470745607799514687e+00	3.116610827175273926e+02	-9.470707608237400876e+00
1.630700217070688450e+04	-9.471126995740396737e+00	3.117044093488311773e+02	-9.471088743256434128e+00
1.630702390983730947e+04	-9.471510904550333620e+00	3.117480193405900195e+02	-9.471472400664090685e+00
1.630704564896773627e+04	-9.471897318978980351e+00	3.117919109662174151e+02	-9.471858565219957171e+00
1.630706738809816306e+04	-9.472286223676999128e+00	3.118360824880062978e+02	-9.472247221584565224e+00
1.630708912722858986e+04	-9.472677603196773433e+00	3.118805321572061757e+02	-9.472638354320094933e+00
1.630711086635901484e+04	-9.473071441993100805e+00	3.119252582140983918e+02	-9.473031947891069393e+00
1.630713260548944163e+04	-9.473467724423647596e+00	3.119702588880514895e+02	-9.473427986664857414e+00
1.630715434461986843e+04	-9.473866434749563581e+00	3.120155323975781698e+02	-9.473826454912217088e+00
1.630717608375029522e+04	-9.474267557136402118e+00	3.120610769504402811e+02	-9.474227336808223043e+00
1.630719782288072020e+04	-9.474671075654764962e+00	3.121068907437217490e+02	-9.474630616432961006e+00
1.630721956201114699e+04	-9.475076974280622011e+00	3.121529719638603524e+02	-9.475036277771815563e+00
1.630724130114157379e+04	-9.475485236896453500e+00	3.121993187867726078e+02	-9.475444304716599930e+00
1.630726304027200058e+04	-9.475895847291411656e+00	3.122459293778746883e+02	-9.475854681065772667e+00
1.630728477940242556e+04	-9.476308789162340318e+00	3.122928018921862190e+02	-9.476267390525363155e+00
1.630730651853285235e+04	-9.476724046114336275e+00	3.123399344743995130e+02	-9.476682416709627077e+00
1.630732825766327915e+04	-9.477141601661458026e+00	3.123873252589511935e+02	-9.477099743141685906e+00
1.630734999679370594e+04	-9.477561439227349283e+00	3.124349723700944992e+02	-9.477519353254196588e+00
1.630737173592413092e+04	-9.477983542146025897e+00	3.124828739219810245e+02	-9.477941230390101168e+00
1.630739347505455771e+04	-9.478407893662531336e+00	3.125310280187379135e+02	-9.478365357803326674e+00
1.630741521418498451e+04	-9.478834476933402087e+00	3.125794327545147553e+02	-9.478791718659220322e+00
1.630743695331541130e+04	-9.479263275027651758e+00	3.126280862135873235e+02	-9.479220296035501647e+00
1.630745869244583628e+04	-9.479694270927456756e+00	3.126769864704421593e+02	-9.479651072923024557e+00
1.630748043157626307e+04	-9.480127447528680307e+00	3.127261315898259113e+02	-9.480084032226233859e+00
1.630750217070668987e+04	-9.480562787641572342e+00	3.127755196268266218e+02	-9.480519156763916655e+00
1.630752390983711666e+04	-9.481000273991803340e+00	3.128251486269798534e+02	-9.480956429270159802e+00
1.630754564896754346e+04	-9.481439889220897754e+00	3.128750166263268966e+02	-9.481395832394882817e+00
1.630756738809796843e+04	-9.481881615886914361e+00	3.129251216514829821e+02	-9.481837348704459600e+00
1.630758912722839523e+04	-9.482325436465249169e+00	3.129754617197208404e+02	-9.482280960682505366e+00
1.630761086635882202e+04	-9.482771333349472087e+00	3.130260348390707463e+02	-9.482726650730754159e+00
1.630763260548924882e+04	-9.483219288851779893e+00	3.130768390083666759e+02	-9.483174401169501166e+00
1.630765434461967379e+04	-9.483669285203980337e+00	3.131278722173520919e+02	-9.483624194238565508e+00
1.630767608375010059e+04	-9.484121304558053467e+00	3.131791324467428126e+02	-9.484076012097858666e+00
1.630769782288052738e+04	-9.484575328987130405e+00	3.132306176683365493e+02	-9.484529836828388127e+00
1.630771956201095418e+04	-9.485031340485962303e+00	3.132823258450629851e+02	-9.484985650432705029e+00
1.630774130114137915e+04	-9.485489320971579374e+00	3.133342549310540335e+02	-9.485443434835566734e+00
1.630776304027180595e+04	-9.485949252284413546e+00	3.133864028717673591e+02	-9.485903171885029295e+00
1.630778477940223274e+04	-9.486411116188770976e+00	3.134387676040437327e+02	-9.486364843353001675e+00
1.630780651853265954e+04	-9.486874894373571010e+00	3.134913470561785402e+02	-9.486828430935874579e+00
1.630782825766308451e+04	-9.487340568453362266e+00	3.135441391480424045e+02	-9.487293916255627124e+00
1.630784999679351131e+04	-9.487808119968612175e+00	3.135971417911101184e+02	-9.487761280860093294e+00
1.630787173592393810e+04	-9.488277530387001946e+00	3.136503528885962737e+02	-9.488230506224194727e+00
1.630789347505436490e+04	-9.488748781103822694e+00	3.137037703355103986e+02	-9.488701573750427443e+00
1.630791521418478987e+04	-9.489221853442748156e+00	3.137573920187350609e+02	-9.489174464769597250e+00
1.630793695331521667e+04	-9.489696728656804581e+00	3.138112158171314832e+02	-9.489649160541764772e+00
1.630795869244564346e+04	-9.490173387928820148e+00	3.138652396015930321e+02	-9.490125642256728611e+00
1.630798043157607026e+04	-9.490651812372522755e+00	3.139194612351627711e+02	-9.490603891035103601e+00
1.630800217070649524e+04	-9.491131983033184838e+00	3.139738785731051962e+02	-9.491083887928969176e+00
1.630802390983692203e+04	-9.491613880888394306e+00	3.140284894629929795e+02	-9.491565613922647415e+00
1.630804564896734882e+04	-9.492097486848818377e+00	3.140832917447888804e+02	-9.492049049933457994e+00
1.630806738809777562e+04	-9.492582781758972743e+00	3.141382832509323748e+02	-9.492534176812499780e+00
1.630808912722820060e+04	-9.493069746398093756e+00	3.141934618064351525e+02	-9.493020975345514145e+00
1.630811086635862739e+04	-9.493558361480676666e+00	3.142488252289388129e+02	-9.493509426253417871e+00
1.630813260548905419e+04	-9.494048607657520122e+00	3.143043713288304843e+02	-9.493999510193351199e+00
1.630815434461948098e+04	-9.494540465516459804e+00	3.143600979093261003e+02	-9.494491207759407914e+00
1.630817608374990778e+04	-9.495033915583153572e+00	3.144160027665540724e+02	-9.494984499483424045e+00
1.630819782288033275e+04	-9.495528938321925239e+00	3.144720836896516971e+02	-9.495479365835830521e+00
1.630821956201075955e+04	-9.496025514136343659e+00	3.145283384608279107e+02	-9.495975787226237586e+00
1.630824130114118634e+04	-9.496523623370130451e+00	3.145847648554615148e+02	-9.496473744004306994e+00
1.630826304027161314e+04	-9.497023246308012645e+00	3.146413606421948543e+02	-9.496973216460622425e+00
1.630828477940203811e+04	-9.497524363176600204e+00	3.146981235830365904e+02	-9.497474184827591870e+00
1.630830651853246491e+04	-9.498026954144979328e+00	3.147550514334221816e+02	-9.497976629280007188e+00
1.630832825766289170e+04	-9.498530999325723201e+00	3.148121419423233078e+02	-9.498480529936038863e+00
1.630834999679331850e+04	-9.499036478775449766e+00	3.148693928523219370e+02	-9.498985866857898586e+00
1.630837173592374347e+04	-9.499543372495910631e+00	3.149268018997115064e+02	-9.499492620052755854e+00
1.630839347505417027e+04	-9.500051660434639444e+00	3.149843668145874176e+02	-9.500000769473544437e+00
1.630841521418459706e+04	-9.500561322485948423e+00	3.150420853209446364e+02	-9.500510295019859441e+00
1.630843695331502386e+04	-9.501072338491315605e+00	3.150999551367308982e+02	-9.501021176538431590e+00
1.630845869244544883e+04	-9.501584688240649612e+00	3.151579739739762545e+02	-9.501533393824288964e+00
1.630848043157587563e+04	-9.502098351472875848e+00	3.152161395388629330e+02	-9.502046926621396494e+00
1.630850217070630242e+04	-9.502613307876947246e+00	3.152744495318424924e+02	-9.502561754623702228e+00
1.630852390983672922e+04	-9.503129537092338097e+00	3.153329016476813536e+02	-9.503077857475561885e+00
1.630854564896715419e+04	-9.503647018710253747e+00	3.153914935756016575e+02	-9.503595214772989408e+00
1.630856738809758099e+04	-9.504165732274154621e+00	3.154502229993370861e+02	-9.504113806064177439e+00
1.630858912722800778e+04	-9.504685657280722566e+00	3.155090875972393292e+02	-9.504633610850437009e+00
