# time(us)	tip(nm)	Fts(nN)	Xb(nm)
1.630437173592529507e+04	-1.253461940315527734e+01	4.790428219199492332e+02	-1.253461926590367348e+01
1.630439347505572005e+04	-1.253462243909741325e+01	4.790434100394286361e+02	-1.253462199940449295e+01
1.630441521418614684e+04	-1.253462849943733559e+01	4.790443918348105399e+02	-1.253462775730771028e+01
1.630443695331657364e+04	-1.253463758406223150e+01	4.790457672665187943e+02	-1.253463653951262557e+01
1.630445869244700043e+04	-1.253464969273848340e+01	4.790475362793919771e+02	-1.253464834579769871e+01
1.630448043157742541e+04	-1.253466482511176494e+01	4.790496988026993108e+02	-1.253466317582067013e+01
1.630450217070785220e+04	-1.253468298070711207e+01	4.790522547501464601e+02	-1.253468102911859994e+01
1.630452390983827900e+04	-1.253470415892913969e+01	4.790552040199211774e+02	-1.253470190510820537e+01
1.630454564896870579e+04	-1.253472835906159588e+01	4.790585464946209413e+02	-1.253472580308529416e+01
1.630456738809913077e+04	-1.253475558026737957e+01	4.790622820412610849e+02	-1.253475272222483561e+01
1.630458912722955756e+04	-1.253478582158901666e+01	4.790664105113362439e+02	-1.253478266158141707e+01
1.630461086635998436e+04	-1.253481908194865646e+01	4.790709317408156380e+02	-1.253481562008919958e+01
1.630463260549041115e+04	-1.253485536014769153e+01	4.790758455501115236e+02	-1.253485159656166381e+01
1.630465434462083795e+04	-1.253489465486709165e+01	4.790811517441047158e+02	-1.253489058969181791e+01
1.630467608375126292e+04	-1.253493696466751040e+01	4.790868501121642566e+02	-1.253493259805232896e+01
1.630469782288168972e+04	-1.253498228798934377e+01	4.790929404281633310e+02	-1.253497762009564021e+01
1.630471956201211651e+04	-1.253503062315252770e+01	4.790994224504449335e+02	-1.253502565415371173e+01
1.630474130114254331e+04	-1.253508196835686839e+01	4.791062959218687070e+02	-1.253507669843836503e+01
1.630476304027296828e+04	-1.253513632168219338e+01	4.791135605698307813e+02	-1.253513075104143404e+01
1.630478477940339508e+04	-1.253519368108790388e+01	4.791212161062094310e+02	-1.253518780993434589e+01
1.630480651853382187e+04	-1.253525404441367641e+01	4.791292622274464179e+02	-1.253524787296873910e+01
1.630482825766424867e+04	-1.253531740937931716e+01	4.791376986145426713e+02	-1.253531093787642625e+01
1.630484999679467364e+04	-1.253538377358474953e+01	4.791465249330461802e+02	-1.253537700226929097e+01
1.630487173592510044e+04	-1.253545313451023446e+01	4.791557408330866110e+02	-1.253544606363956682e+01
1.630489347505552723e+04	-1.253552548951650714e+01	4.791653459493902005e+02	-1.253551811935992966e+01
1.630491521418595403e+04	-1.253560083584474860e+01	4.791753399012816885e+02	-1.253559316668352430e+01
1.630493695331637900e+04	-1.253567917061705828e+01	4.791857222927339421e+02	-1.253567120274432689e+01
1.630495869244680580e+04	-1.253576049083615018e+01	4.791964927123519260e+02	-1.253575222455703830e+01
1.630498043157723259e+04	-1.253584479338523749e+01	4.792076507333341624e+02	-1.253583622901676264e+01
1.630500217070765939e+04	-1.253593207502895801e+01	4.792191959135971047e+02	-1.253592321289998779e+01
1.630502390983808436e+04	-1.253602233241303132e+01	4.792311277957498987e+02	-1.253601317286435979e+01
1.630504564896851116e+04	-1.253611556206447197e+01	4.792434459070969410e+02	-1.253610610544872372e+01
1.630506738809893795e+04	-1.253621176039161433e+01	4.792561497596645381e+02	-1.253620200707331378e+01
1.630508912722936475e+04	-1.253631092368424227e+01	4.792692388501948244e+02	-1.253630087403971238e+01
1.630511086635978972e+04	-1.253641304811412738e+01	4.792827126602312546e+02	-1.253640270253150213e+01
1.630513260549021652e+04	-1.253651812973484070e+01	4.792965706560974013e+02	-1.253650748861409703e+01
1.630515434462064331e+04	-1.253662616448180422e+01	4.793108122888893377e+02	-1.253661522823469632e+01
1.630517608375107011e+04	-1.253673714817274210e+01	4.793254369945428266e+02	-1.253672591722278895e+01
1.630519782288149690e+04	-1.253685107650791153e+01	4.793404441938624245e+02	-1.253683955129037386e+01
1.630521956201192188e+04	-1.253696794507010992e+01	4.793558332925242098e+02	-1.253695612603199550e+01
1.630524130114234868e+04	-1.253708774932502834e+01	4.793716036811122194e+02	-1.253707563692500848e+01
1.630526304027277547e+04	-1.253721048462124266e+01	4.793877547351416410e+02	-1.253719807932975527e+01
1.630528477940320226e+04	-1.253733614619012826e+01	4.794042858150179427e+02	-1.253732344848927838e+01
1.630530651853362724e+04	-1.253746472914666477e+01	4.794211962661553912e+02	-1.253745173953019609e+01
1.630532825766405404e+04	-1.253759622848930810e+01	4.794384854189627845e+02	-1.253758294746261370e+01
1.630534999679448083e+04	-1.253773063910028185e+01	4.794561525888734081e+02	-1.253771706718035439e+01
1.630537173592490763e+04	-1.253786795574571933e+01	4.794741970763765835e+02	-1.253785409346119195e+01
1.630539347505533260e+04	-1.253800817307572757e+01	4.794926181670059009e+02	-1.253799402096677795e+01
1.630541521418575940e+04	-1.253815128562499481e+01	4.795114151314321020e+02	-1.253813684424333985e+01
1.630543695331618619e+04	-1.253829728781288644e+01	4.795305872254772339e+02	-1.253828255772180178e+01
1.630545869244661299e+04	-1.253844617394332417e+01	4.795501336900862839e+02	-1.253843115571756783e+01
1.630548043157703796e+04	-1.253859793820541491e+01	4.795700537514250072e+02	-1.253858263243126814e+01
1.630550217070746476e+04	-1.253875257467357507e+01	4.795903466208735040e+02	-1.253873698194872688e+01
1.630552390983789155e+04	-1.253891007730794094e+01	4.796110114951011951e+02	-1.253889419824152363e+01
1.630554564896831835e+04	-1.253907043995430293e+01	4.796320475560498267e+02	-1.253905427516687432e+01
1.630556738809874332e+04	-1.253923365634437026e+01	4.796534539709669502e+02	-1.253921720646789773e+01
1.630558912722917012e+04	-1.253939972009635362e+01	4.796752298924696447e+02	-1.253938298577408794e+01
1.630561086635959691e+04	-1.253956862471499711e+01	4.796973744585786221e+02	-1.253955160660160395e+01
1.630563260549002371e+04	-1.253974036359178434e+01	4.797198867927058359e+02	-1.253972306235316125e+01
1.630565434462044868e+04	-1.253991493000540203e+01	4.797427660037499777e+02	-1.253989734631877084e+01
1.630567608375087548e+04	-1.254009231712188743e+01	4.797660111860903953e+02	-1.254007445167570900e+01
1.630569782288130227e+04	-1.254027251799494280e+01	4.797896214196351252e+02	-1.254025437148887256e+01
1.630571956201172907e+04	-1.254045552556626930e+01	4.798135957698727339e+02	-1.254043709871119106e+01
1.630574130114215404e+04	-1.254064133266562031e+01	4.798379332878637342e+02	-1.254062262618356804e+01
1.630576304027258084e+04	-1.254082993201153862e+01	4.798626330103443252e+02	-1.254081094663567342e+01
1.630578477940300763e+04	-1.254102131621136884e+01	4.798876939597246292e+02	-1.254100205268593982e+01
1.630580651853343443e+04	-1.254121547776152390e+01	4.799131151441288807e+02	-1.254119593684187528e+01
1.630582825766386122e+04	-1.254141240904788646e+01	4.799388955574381157e+02	-1.254139259150040608e+01
1.630584999679428620e+04	-1.254161210234614821e+01	4.799650341793345092e+02	-1.254159200894819470e+01
1.630587173592471299e+04	-1.254181454982204258e+01	4.799915299753432123e+02	-1.254179418136200042e+01
1.630589347505513979e+04	-1.254201974353164495e+01	4.800183818968530431e+02	-1.254199910080882319e+01
1.630591521418556658e+04	-1.254222767542187533e+01	4.800455888811927707e+02	-1.254220675924649697e+01
1.630593695331599156e+04	-1.254243833733058366e+01	4.800731498516363445e+02	-1.254241714852374656e+01
1.630595869244641835e+04	-1.254265172098718750e+01	4.801010637174865678e+02	-1.254263026038082351e+01
1.630598043157684515e+04	-1.254286781801268624e+01	4.801293293740815784e+02	-1.254284608644956656e+01
1.630600217070727194e+04	-1.254308661992019758e+01	4.801579457028536240e+02	-1.254306461825386343e+01
1.630602390983769692e+04	-1.254330811811546020e+01	4.801869115713916472e+02	-1.254328584721013407e+01
1.630604564896812371e+04	-1.254353230389696527e+01	4.802162258334814169e+02	-1.254350976462764855e+01
1.630606738809855051e+04	-1.254375916845598837e+01	4.802458873290825636e+02	-1.254373636170834772e+01
1.630608912722897730e+04	-1.254398870287753276e+01	4.802758948844545444e+02	-1.254396562954783434e+01
1.630611086635940228e+04	-1.254422089814041108e+01	4.803062473121796074e+02	-1.254419755913554368e+01
1.630613260548982907e+04	-1.254445574511778538e+01	4.803369434112190106e+02	-1.254443214135518758e+01
1.630615434462025587e+04	-1.254469323457733054e+01	4.803679819669417839e+02	-1.254466936698497470e+01
1.630617608375068266e+04	-1.254493335718168368e+01	4.803993617511737853e+02	-1.254490922669801201e+01
1.630619782288110764e+04	-1.254517610348904277e+01	4.804310815222772248e+02	-1.254515171106290872e+01
1.630621956201153444e+04	-1.254542146395338520e+01	4.804631400251931268e+02	-1.254539681054410849e+01
1.630624130114196123e+04	-1.254566942892448012e+01	4.804955359914181940e+02	-1.254564451550173487e+01
1.630626304027238803e+04	-1.254591998864884950e+01	4.805282681391402662e+02	-1.254589481619262337e+01
1.630628477940281300e+04	-1.254617313326995287e+01	4.805613351732620231e+02	-1.254614770277052038e+01
1.630630651853323980e+04	-1.254642885282863851e+01	4.805947357854583970e+02	-1.254640316528653265e+01
1.630632825766366659e+04	-1.254668713726363016e+01	4.806284686542315399e+02	-1.254666119368955179e+01
1.630634999679409339e+04	-1.254694797641169934e+01	4.806625324449469758e+02	-1.254692177782655094e+01
1.630637173592452018e+04	-1.254721136000814852e+01	4.806969258098824866e+02	-1.254718490744295600e+01
1.630639347505494516e+04	-1.254747727768730847e+01	4.807316473882956984e+02	-1.254745057218317861e+01
1.630641521418537195e+04	-1.254774571898289004e+01	4.807666958064647247e+02	-1.254771876159094646e+01
1.630643695331579875e+04	-1.254801667332853832e+01	4.808020696777693956e+02	-1.254798946510992153e+01
1.630645869244622554e+04	-1.254829013005823946e+01	4.808377676027313896e+02	-1.254826267208402690e+01
1.630648043157665052e+04	-1.254856607840656579e+01	4.808737881690531708e+02	-1.254853837175774878e+01
1.630650217070707731e+04	-1.254884450750955516e+01	4.809101299517243433e+02	-1.254881655327697132e+01
1.630652390983750411e+04	-1.254912540640459540e+01	4.809467915130134656e+02	-1.254909720568891096e+01
1.630654564896793090e+04	-1.254940876403115446e+01	4.809837714025551918e+02	-1.254938031794280917e+01
1.630656738809835588e+04	-1.254969456923146254e+01	4.810210681574397995e+02	-1.254966587889061636e+01
1.630658912722878267e+04	-1.254998281075055289e+01	4.810586803022184768e+02	-1.254995387728705225e+01
1.630661086635920947e+04	-1.255027347723707187e+01	4.810966063490076294e+02	-1.255024430179040529e+01
1.630663260548963626e+04	-1.255056655724321857e+01	4.811348447974744431e+02	-1.255053714096245088e+01
1.630665434462006124e+04	-1.255086203922578214e+01	4.811733941349804127e+02	-1.255083238326954387e+01
1.630667608375048803e+04	-1.255115991154620403e+01	4.812122528365774201e+02	-1.255113001708260789e+01
1.630669782288091483e+04	-1.255146016247157625e+01	4.812514193651409755e+02	-1.255143003067816743e+01
1.630671956201134162e+04	-1.255176278017452240e+01	4.812908921713574841e+02	-1.255173241223825364e+01
1.630674130114176660e+04	-1.255206775273408226e+01	4.813306696938305436e+02	-1.255203714985125529e+01
1.630676304027219339e+04	-1.255237506813607595e+01	4.813707503591334671e+02	-1.255234423151228995e+01
1.630678477940262019e+04	-1.255268471427337929e+01	4.814111325818439582e+02	-1.255265364512352910e+01
1.630680651853304698e+04	-1.255299667894661297e+01	4.814518147646194848e+02	-1.255296537849474348e+01
1.630682825766347196e+04	-1.255331094986484430e+01	4.814927952983043156e+02	-1.255327941934417346e+01
1.630684999679389875e+04	-1.255362751464570970e+01	4.815340725619387285e+02	-1.255359575529858240e+01
1.630687173592432555e+04	-1.255394636081620163e+01	4.815756449228491078e+02	-1.255391437389396714e+01
1.630689347505475234e+04	-1.255426747581308966e+01	4.816175107367172359e+02	-1.255423526257611222e+01
1.630691521418517732e+04	-1.255459084698367178e+01	4.816596683476695375e+02	-1.255455840870126849e+01
1.630693695331560411e+04	-1.255491646158547425e+01	4.817021160882366075e+02	-1.255488379953587064e+01
1.630695869244603091e+04	-1.255524430678780590e+01	4.817448522795535268e+02	-1.255521142225806308e+01
1.630698043157645770e+04	-1.255557436967150586e+01	4.817878752313238806e+02	-1.255554126395747083e+01
1.630700217070688450e+04	-1.255590663723000766e+01	4.818311832419657890e+02	-1.255587331163629017e+01
1.630702390983730947e+04	-1.255624109636963404e+01	4.818747745986328823e+02	-1.255620755220948759e+01
1.630704564896773627e+04	-1.255657773390989895e+01	4.819186475772726226e+02	-1.255654397250525633e+01
1.630706738809816306e+04	-1.255691653658447393e+01	4.819628004427332826e+02	-1.255688255926583707e+01
1.630708912722858986e+04	-1.255725749104151845e+01	4.820072314488086249e+02	-1.255722329914788382e+01
1.630711086635901484e+04	-1.255760058384444555e+01	4.820519388383451087e+02	-1.255756617872329528e+01
1.630713260548944163e+04	-1.255794580147185080e+01	4.820969208432255755e+02	-1.255791118447909405e+01
1.630715434461986843e+04	-1.255829313031868466e+01	4.821421756845182358e+02	-1.255825830281859545e+01
1.630717608375029522e+04	-1.255864255669659180e+01	4.821877015725199271e+02	-1.255860752006173264e+01
1.630719782288072020e+04	-1.255899406683441377e+01	4.822334967068235301e+02	-1.255895882244561079e+01
1.630721956201114699e+04	-1.255934764687897953e+01	4.822795592764153412e+02	-1.255931219612523364e+01
1.630724130114157379e+04	-1.255970328289513382e+01	4.823258874596829742e+02	-1.255966762717360830e+01
1.630726304027200058e+04	-1.256006096086715473e+01	4.823724794245899261e+02	-1.256002510158307217e+01
1.630728477940242556e+04	-1.256042066669839841e+01	4.824193333286347638e+02	-1.256038460526500522e+01
1.630730651853285235e+04	-1.256078238621267751e+01	4.824664473190259173e+02	-1.256074612405117641e+01
1.630732825766327915e+04	-1.256114610515424701e+01	4.825138195326842947e+02	-1.256110964369378102e+01
1.630734999679370594e+04	-1.256151180918868349e+01	4.825614480963442361e+02	-1.256147514986621694e+01
1.630737173592413092e+04	-1.256187948390334341e+01	4.826093311266206456e+02	-1.256184262816362818e+01
1.630739347505455771e+04	-1.256224911480805773e+01	4.826574667301003956e+02	-1.256221206410360125e+01
1.630741521418498451e+04	-1.256262068733557058e+01	4.827058530033863235e+02	-1.256258344312652220e+01
1.630743695331541130e+04	-1.256299418684250568e+01	4.827544880332369530e+02	-1.256295675059666372e+01
1.630745869244583628e+04	-1.256336959860922242e+01	4.828033698965318763e+02	-1.256333197180192052e+01
1.630748043157626307e+04	-1.256374690784123160e+01	4.828524966604599626e+02	-1.256370909195528007e+01
1.630750217070668987e+04	-1.256412609966933935e+01	4.829018663825441990e+02	-1.256408809619501099e+01
1.630752390983711666e+04	-1.256450715915023153e+01	4.829514771107049000e+02	-1.256446896958516746e+01
1.630754564896754346e+04	-1.256489007126728730e+01	4.830013268833673692e+02	-1.256485169711642413e+01
1.630756738809796843e+04	-1.256527482093108716e+01	4.830514137295342607e+02	-1.256523626370664992e+01
1.630758912722839523e+04	-1.256566139297994944e+01	4.831017356688399218e+02	-1.256562265420132007e+01
1.630761086635882202e+04	-1.256604977218064434e+01	4.831522907116552119e+02	-1.256601085337435286e+01
1.630763260548924882e+04	-1.256643994322928748e+01	4.832030768591898209e+02	-1.256640084592888940e+01
1.630765434461967379e+04	-1.256683189075140206e+01	4.832540921035156884e+02	-1.256679261649749790e+01
1.630767608375010059e+04	-1.256722559930270400e+01	4.833053344276550547e+02	-1.256718614964285052e+01
1.630769782288052738e+04	-1.256762105336994395e+01	4.833568018056876667e+02	-1.256758142985855642e+01
1.630771956201095418e+04	-1.256801823737124302e+01	4.834084922027974471e+02	-1.256797844156954902e+01
1.630774130114137915e+04	-1.256841713565724028e+01	4.834604035754232996e+02	-1.256837716913323177e+01
1.630776304027180595e+04	-1.256881773251112655e+01	4.835125338712566645e+02	-1.256877759683948348e+01
1.630778477940223274e+04	-1.256922001214969953e+01	4.835648810293781708e+02	-1.256917970891171699e+01
1.630780651853265954e+04	-1.256962395872376348e+01	4.836174429803139674e+02	-1.256958348950731796e+01
1.630782825766308451e+04	-1.257002955631893748e+01	4.836702176461275258e+02	-1.256998892271837143e+01
1.630784999679351131e+04	-1.257043678895604444e+01	4.837232029404900118e+02	-1.257039599257219109e+01
1.630787173592393810e+04	-1.257084564059189447e+01	4.837763967687513968e+02	-1.257080468303190379e+01
1.630789347505436490e+04	-1.257125609512009490e+01	4.838297970280732443e+02	-1.257121497799746201e+01
1.630791521418478987e+04	-1.257166813637155300e+01	4.838834016074684996e+02	-1.257162686130595830e+01
1.630793695331521667e+04	-1.257208174811520607e+01	4.839372083879180195e+02	-1.257204031673254185e+01
1.630795869244564346e+04	-1.257249691405855785e+01	4.839912152424253122e+02	-1.257245532799083598e+01
1.630798043157607026e+04	-1.257291361784831807e+01	4.840454200360943560e+02	-1.257287187873356338e+01
1.630800217070649524e+04	-1.257333184307118223e+01	4.840998206262435701e+02	-1.257328995255341653e+01
1.630802390983692203e+04	-1.257375157325457238e+01	4.841544148624880108e+02	-1.257370953298370075e+01
1.630804564896734882e+04	-1.257417279186712022e+01	4.842092005868105389e+02	-1.257413060349889911e+01
1.630806738809777562e+04	-1.257459548231940083e+01	4.842641756336533945e+02	-1.257455314751537223e+01
1.630808912722820060e+04	-1.257501962796437311e+01	4.843193378299745859e+02	-1.257497714839181491e+01
1.630811086635862739e+04	-1.257544521209846700e+01	4.843746849953785159e+02	-1.257540258943027034e+01
1.630813260548905419e+04	-1.257587221796177879e+01	4.844302149421558852e+02	-1.257582945387642326e+01
1.630815434461948098e+04	-1.257630062873952781e+01	4.844859254754559856e+02	-1.257625772492095884e+01
1.630817608374990778e+04	-1.257673042756184856e+01	4.845418143932826069e+02	-1.257668738569952716e+01
1.630819782288033275e+04	-1.257716159750489204e+01	4.845978794866027783e+02	-1.257711841929358876e+01
1.630821956201075955e+04	-1.257759412159158963e+01	4.846541185394725062e+02	-1.257755080873140052e+01
1.630824130114118634e+04	-1.257802798279221435e+01	4.847105293290941859e+02	-1.257798453698844199e+01
1.630826304027161314e+04	-1.257846316402503817e+01	4.847671096259145997e+02	-1.257841958698820051e+01
1.630828477940203811e+04	-1.257889964815696437e+01	4.848238571936874450e+02	-1.257885594160265441e+01
1.630830651853246491e+04	-1.257933741800433403e+01	4.848807697895891806e+02	-1.257929358365316475e+01
1.630832825766289170e+04	-1.257977645633374664e+01	4.849378451643237327e+02	-1.257973249591128528e+01
1.630834999679331850e+04	-1.258021674586250782e+01	4.849950810621786559e+02	-1.258017266109922083e+01
1.630837173592374347e+04	-1.258065826925930608e+01	4.850524752211139230e+02	-1.258061406189049869e+01
1.630839347505417027e+04	-1.258110100914499618e+01	4.851100253728556027e+02	-1.258105668091070761e+01
1.630841521418459706e+04	-1.258154494809313562e+01	4.851677292429772024e+02	-1.258150050073812487e+01
1.630843695331502386e+04	-1.258199006863123515e+01	4.852255845510396739e+02	-1.258194550390479982e+01
1.630845869244544883e+04	-1.258243635324096488e+01	4.852835890106444481e+02	-1.258239167289697313e+01
1.630848043157587563e+04	-1.258288378435905130e+01	4.853417403295322856e+02	-1.258283899015584062e+01
1.630850217070630242e+04	-1.258333234437785819e+01	4.854000362096614936e+02	-1.258328743807816430e+01
1.630852390983672922e+04	-1.258378201564607224e+01	4.854584743473005233e+02	-1.258373699901699005e+01
1.630854564896715419e+04	-1.258423278046926619e+01	4.855170524330902708e+02	-1.258418765528213079e+01
1.630856738809758099e+04	-1.258468462111104458e+01	4.855757681522007374e+02	-1.258463938914138325e+01
1.630858912722800778e+04	-1.258513751979362638e+01	4.856346191843981046e+02	-1.258509218282104136e+01
