# time(us)	tip(nm)	Fts(nN)	Xb(nm)
1.630437173592529507e+04	2.393268436236119499e+02	-5.797243665943851834e-06	-3.090281960189824595e-01
1.630439347505572005e+04	2.397970118305246103e+02	-5.774557685585745598e-06	-3.090151399768156226e-01
1.630441521418614684e+04	2.402631380296212171e+02	-5.752197500722442442e-06	-3.090021022155954311e-01
1.630443695331657364e+04	2.407251665155225169e+02	-5.730161380833669186e-06	-3.089890827024585618e-01
1.630445869244700043e+04	2.411830440219000593e+02	-5.708447512982375929e-06	-3.089760814046030868e-01
1.630448043157742541e+04	2.416367202895341677e+02	-5.687053978546223454e-06	-3.089630982892880295e-01
1.630450217070785220e+04	2.420861485915462765e+02	-5.665978732647238181e-06	-3.089501333238330871e-01
1.630452390983827900e+04	2.425312862092073942e+02	-5.645219586464933284e-06	-3.089371864756191854e-01
1.630454564896870579e+04	2.429720948523361415e+02	-5.624774192583251112e-06	-3.089242577120875910e-01
1.630456738809913077e+04	2.434085410190001539e+02	-5.604640033485252833e-06	-3.089113470007409101e-01
1.630458912722955756e+04	2.438405962899804820e+02	-5.584814413273142674e-06	-3.088984543091413126e-01
1.630461086635998436e+04	2.442682375542797786e+02	-5.565294452653451710e-06	-3.088855796049118640e-01
1.630463260549041115e+04	2.446914471628033994e+02	-5.546077087190619401e-06	-3.088727228557356930e-01
1.630465434462083795e+04	2.451102130082415158e+02	-5.527159068795241498e-06	-3.088598840293563796e-01
1.630467608375126292e+04	2.455245285300926525e+02	-5.508536970377615684e-06	-3.088470630935773453e-01
1.630469782288168972e+04	2.459343926446988178e+02	-5.490207193562363505e-06	-3.088342600162618523e-01
1.630471956201211651e+04	2.463398096010937195e+02	-5.472165979327021881e-06	-3.088214747653332259e-01
1.630474130114254331e+04	2.467407887643849165e+02	-5.454409421395819350e-06	-3.088087073087742440e-01
1.630476304027296828e+04	2.471373443292917216e+02	-5.436933482191067445e-06	-3.087959576146274698e-01
1.630478477940339508e+04	2.475294949673264000e+02	-5.419734011117259632e-06	-3.087832256509946971e-01
1.630480651853382187e+04	2.479172634119319696e+02	-5.402806764929322772e-06	-3.087705113860375605e-01
1.630482825766424867e+04	2.483006759866609627e+02	-5.386147429914844688e-06	-3.087578147879763146e-01
1.630484999679467364e+04	2.486797620821889439e+02	-5.369751645602013906e-06	-3.087451358250907774e-01
1.630487173592510044e+04	2.490545535885945867e+02	-5.353615029690209103e-06	-3.087324744657199416e-01
1.630489347505552723e+04	2.494250842899002976e+02	-5.337733203888410511e-06	-3.087198306782614754e-01
1.630491521418595403e+04	2.497913892283363850e+02	-5.322101820339017819e-06	-3.087072044311716112e-01
1.630493695331637900e+04	2.501535040461797053e+02	-5.306716588300007191e-06	-3.086945956929659785e-01
1.630495869244680580e+04	2.505114643133008769e+02	-5.291573300757935671e-06	-3.086820044322181600e-01
1.630498043157723259e+04	2.508653048487422268e+02	-5.276667860647186224e-06	-3.086694306175604696e-01
1.630500217070765939e+04	2.512150590447348577e+02	-5.261996306357624638e-06	-3.086568742176838409e-01
1.630502390983808436e+04	2.515607582015435071e+02	-5.247554836223168216e-06	-3.086443352013368280e-01
1.630504564896851116e+04	2.519024308814079234e+02	-5.233339831697382241e-06	-3.086318135373267713e-01
1.630506738809893795e+04	2.522401022896284530e+02	-5.219347878939627604e-06	-3.086193091945188538e-01
1.630508912722936475e+04	2.525737936905245249e+02	-5.205575788555087396e-06	-3.086068221418362123e-01
1.630511086635978972e+04	2.529035218655770620e+02	-5.192020613255623248e-06	-3.085943523482597151e-01
1.630513260549021652e+04	2.532292986205635827e+02	-5.178679663233911209e-06	-3.085818997828279620e-01
1.630515434462064331e+04	2.535511303479079857e+02	-5.165550519071498804e-06	-3.085694644146373400e-01
1.630517608375107011e+04	2.538690176497992184e+02	-5.152631042031702078e-06	-3.085570462128414126e-01
1.630519782288149690e+04	2.541829550269083313e+02	-5.139919381619690589e-06	-3.085446451466516971e-01
1.630521956201192188e+04	2.544929306367355650e+02	-5.127413980325383178e-06	-3.085322611853364427e-01
1.630524130114234868e+04	2.547989261247824686e+02	-5.115113575498414687e-06	-3.085198942982213532e-01
1.630526304027277547e+04	2.551009165308619515e+02	-5.103017198338792021e-06	-3.085075444546891421e-01
1.630528477940320226e+04	2.553988702719573496e+02	-5.091124170020746017e-06	-3.084952116241795328e-01
1.630530651853362724e+04	2.556927492021054036e+02	-5.079434095001359204e-06	-3.084828957761891477e-01
1.630532825766405404e+04	2.559825087488572137e+02	-5.067946851598256850e-06	-3.084705968802710085e-01
1.630534999679448083e+04	2.562680981249387173e+02	-5.056662579952201514e-06	-3.084583149060355911e-01
1.630537173592490763e+04	2.565494606128232817e+02	-5.045581667520469677e-06	-3.084460498231491044e-01
1.630539347505533260e+04	2.568265339190509735e+02	-5.034704732274764847e-06	-3.084338016013344341e-01
1.630541521418575940e+04	2.570992505942806474e+02	-5.024032603803007869e-06	-3.084215702103712542e-01
1.630543695331618619e+04	2.573675385142668119e+02	-5.013566302537440393e-06	-3.084093556200946384e-01
1.630545869244661299e+04	2.576313214162187819e+02	-5.003307017351431811e-06	-3.083971578003963376e-01
1.630548043157703796e+04	2.578905194843316622e+02	-4.993256081784418092e-06	-3.083849767212242798e-01
1.630550217070746476e+04	2.581450499776809693e+02	-4.983414949168194829e-06	-3.083728123525818487e-01
1.630552390983789155e+04	2.583948278931630966e+02	-4.973785166938262954e-06	-3.083606646645283278e-01
1.630554564896831835e+04	2.586397666557446087e+02	-4.964368350420872910e-06	-3.083485336271789001e-01
1.630556738809874332e+04	2.588797788279526344e+02	-4.955166156389793610e-06	-3.083364192107041490e-01
1.630558912722917012e+04	2.591147768303093812e+02	-4.946180256687187374e-06	-3.083243213853304465e-01
1.630561086635959691e+04	2.593446736642859491e+02	-4.937412312199497568e-06	-3.083122401213390651e-01
1.630563260549002371e+04	2.595693836293231698e+02	-4.928863947472736839e-06	-3.083001753890670660e-01
1.630565434462044868e+04	2.597888230255425128e+02	-4.920536726241981401e-06	-3.082881271589065220e-01
1.630567608375087548e+04	2.600029108339485333e+02	-4.912432128137084070e-06	-3.082760954013042953e-01
1.630569782288130227e+04	2.602115693662031504e+02	-4.904551526811227320e-06	-3.082640800867626485e-01
1.630571956201172907e+04	2.604147248764242590e+02	-4.896896169720944941e-06	-3.082520811858385779e-01
1.630574130114215404e+04	2.606123081279209828e+02	-4.889467159766108616e-06	-3.082400986691437028e-01
1.630576304027258084e+04	2.608042549083410790e+02	-4.882265438975614267e-06	-3.082281325073444322e-01
1.630578477940300763e+04	2.609905064873231595e+02	-4.875291774400834366e-06	-3.082161826711616870e-01
1.630580651853343443e+04	2.611710100114518696e+02	-4.868546746352974734e-06	-3.082042491313708998e-01
1.630582825766386122e+04	2.613457188320838895e+02	-4.862030739093670841e-06	-3.081923318588020155e-01
1.630584999679428620e+04	2.615145927624193973e+02	-4.855743934060460649e-06	-3.081804308243389356e-01
1.630587173592471299e+04	2.616775982610624851e+02	-4.849686305680275137e-06	-3.081685459989198517e-01
1.630589347505513979e+04	2.618347085402071457e+02	-4.843857619795303808e-06	-3.081566773535371340e-01
1.630591521418556658e+04	2.619859035974952803e+02	-4.838257434696948321e-06	-3.081448248592367212e-01
1.630593695331599156e+04	2.621311701715268896e+02	-4.832885104734832522e-06	-3.081329884871189528e-01
1.630595869244641835e+04	2.622705016219262006e+02	-4.827739786439777463e-06	-3.081211682083375147e-01
1.630598043157684515e+04	2.624038977357782869e+02	-4.822820447072608475e-06	-3.081093639940998830e-01
1.630600217070727194e+04	2.625313644631485772e+02	-4.818125875484086560e-06	-3.080975758156670463e-01
1.630602390983769692e+04	2.626529135852497348e+02	-4.813654695146639031e-06	-3.080858036443536174e-01
1.630604564896812371e+04	2.627685623196366009e+02	-4.809405379195065113e-06	-3.080740474515272775e-01
1.630606738809855051e+04	2.628783328675691564e+02	-4.805376267291703077e-06	-3.080623072086091652e-01
1.630608912722897730e+04	2.629822519093767141e+02	-4.801565584112259391e-06	-3.080505828870733209e-01
1.630611086635940228e+04	2.630803500542824054e+02	-4.797971459230800776e-06	-3.080388744584472982e-01
1.630613260548982907e+04	2.631726612516931709e+02	-4.794591948167612388e-06	-3.080271818943110529e-01
1.630615434462025587e+04	2.632592221714128868e+02	-4.791425054351129908e-06	-3.080155051662979426e-01
1.630617608375068266e+04	2.633400715606086351e+02	-4.788468751735496303e-06	-3.080038442460936166e-01
1.630619782288110764e+04	2.634152495856276914e+02	-4.785721007808270445e-06	-3.079921991054366259e-01
1.630621956201153444e+04	2.634847971669365165e+02	-4.783179806718898903e-06	-3.079805697161178135e-01
1.630624130114196123e+04	2.635487553155172691e+02	-4.780843172257552589e-06	-3.079689560499810352e-01
1.630626304027238803e+04	2.636071644790336563e+02	-4.778709190415929779e-06	-3.079573580789217724e-01
1.630628477940281300e+04	2.636600639059331002e+02	-4.776776031266677872e-06	-3.079457757748884084e-01
1.630630651853323980e+04	2.637074910354268695e+02	-4.775041969906056860e-06	-3.079342091098811185e-01
1.630632825766366659e+04	2.637494809209555910e+02	-4.773505406215446680e-06	-3.079226580559522586e-01
1.630634999679409339e+04	2.637860656943197455e+02	-4.772164883210965000e-06	-3.079111225852060874e-01
1.630637173592452018e+04	2.638172740771452141e+02	-4.771019103767177312e-06	-3.078996026697988775e-01
1.630639347505494516e+04	2.638431309457611746e+02	-4.770066945519409205e-06	-3.078880982819385270e-01
1.630641521418537195e+04	2.638636569548970101e+02	-4.769307473770759874e-06	-3.078766093938847814e-01
1.630643695331579875e+04	2.638788682248702457e+02	-4.768739952253087359e-06	-3.078651359779489560e-01
1.630645869244622554e+04	2.638887760961487174e+02	-4.768363851616329340e-06	-3.078536780064933809e-01
1.630648043157665052e+04	2.638933869543310493e+02	-4.768178855547183701e-06	-3.078422354519324000e-01
1.630650217070707731e+04	2.638927021277101517e+02	-4.768184864445880347e-06	-3.078308082867313722e-01
1.630652390983750411e+04	2.638867178586863247e+02	-4.768381996618619787e-06	-3.078193964834067264e-01
1.630654564896793090e+04	2.638754253493788724e+02	-4.768770586972081910e-06	-3.078080000145263506e-01
1.630656738809835588e+04	2.638588108808619950e+02	-4.769351183226022349e-06	-3.077966188527088698e-01
1.630658912722878267e+04	2.638368560045373101e+02	-4.770124539688877121e-06	-3.077852529706235352e-01
1.630661086635920947e+04	2.638095378032601275e+02	-4.771091608669975948e-06	-3.077739023409912789e-01
1.630663260548963626e+04	2.637768292189691692e+02	-4.772253529629477952e-06	-3.077625669365828265e-01
1.630665434462006124e+04	2.637386994427452009e+02	-4.773611616193716561e-06	-3.077512467302200849e-01
1.630667608375048803e+04	2.636951143624438600e+02	-4.775167341188382291e-06	-3.077399416947751432e-01
1.630669782288091483e+04	2.636460370623349831e+02	-4.776922319865151111e-06	-3.077286518031707718e-01
1.630671956201134162e+04	2.635914283685322630e+02	-4.778878291518134523e-06	-3.077173770283801457e-01
1.630674130114176660e+04	2.635312474334198782e+02	-4.781037099705423068e-06	-3.077061173434261221e-01
1.630676304027219339e+04	2.634654523518008205e+02	-4.783400671306812503e-06	-3.076948727213825174e-01
1.630678477940262019e+04	2.633940008010882252e+02	-4.785970994662409437e-06	-3.076836431353726642e-01
1.630680651853304698e+04	2.633168506975553100e+02	-4.788750097047214812e-06	-3.076724285585701324e-01
1.630682825766347196e+04	2.632339608604524415e+02	-4.791740021744647438e-06	-3.076612289641980635e-01
1.630684999679389875e+04	2.631452916756940112e+02	-4.794942804986370166e-06	-3.076500443255294481e-01
1.630687173592432555e+04	2.630508057508096158e+02	-4.798360453027682827e-06	-3.076388746158872922e-01
1.630689347505475234e+04	2.629504685529508947e+02	-4.801994919626205348e-06	-3.076277198086437847e-01
1.630691521418517732e+04	2.628442490219448473e+02	-4.805848084187376548e-06	-3.076165798772207416e-01
1.630693695331560411e+04	2.627321201506747457e+02	-4.809921730833023177e-06	-3.076054547950894391e-01
1.630695869244603091e+04	2.626140595254619825e+02	-4.814217528639318927e-06	-3.075943445357703365e-01
1.630698043157645770e+04	2.624900498196016656e+02	-4.818737013277739172e-06	-3.075832490728334645e-01
1.630700217070688450e+04	2.623600792337667826e+02	-4.823481570277451063e-06	-3.075721683798975925e-01
1.630702390983730947e+04	2.622241418776360433e+02	-4.828452420110063678e-06	-3.075611024306305064e-01
1.630704564896773627e+04	2.620822380878093441e+02	-4.833650605278024436e-06	-3.075500511987492858e-01
1.630706738809816306e+04	2.619343746778455966e+02	-4.839076979566231782e-06	-3.075390146580195827e-01
1.630708912722858986e+04	2.617805651170808119e+02	-4.844732199593094145e-06	-3.075279927822557324e-01
1.630711086635901484e+04	2.616208296357403356e+02	-4.850616718772418304e-06	-3.075169855453208090e-01
1.630713260548944163e+04	2.614551952547604969e+02	-4.856730783771394581e-06	-3.075059929211269583e-01
1.630715434461986843e+04	2.612836957396386310e+02	-4.863074433522763301e-06	-3.074950148836341768e-01
1.630717608375029522e+04	2.611063714785589696e+02	-4.869647500821556602e-06	-3.074840514068509778e-01
1.630719782288072020e+04	2.609232692859561098e+02	-4.876449616508224008e-06	-3.074731024648342803e-01
1.630721956201114699e+04	2.607344421335824904e+02	-4.883480216211767701e-06	-3.074621680316890204e-01
1.630724130114157379e+04	2.605399488120277169e+02	-4.890738549597898114e-06	-3.074512480815687621e-01
1.630726304027200058e+04	2.603398535264784641e+02	-4.898223692039292941e-06	-3.074403425886748642e-01
1.630728477940242556e+04	2.601342254313093463e+02	-4.905934558597685196e-06	-3.074294515272559813e-01
1.630730651853285235e+04	2.599231381088358717e+02	-4.913869920180993810e-06	-3.074185748716096733e-01
1.630732825766327915e+04	2.597066689982358980e+02	-4.922028421713816819e-06	-3.074077125960805179e-01
1.630734999679370594e+04	2.594848987812525252e+02	-4.930408602135776754e-06	-3.073968646750611100e-01
1.630737173592413092e+04	2.592579107318171054e+02	-4.939008916020412864e-06	-3.073860310829916731e-01
1.630739347505455771e+04	2.590257900371656774e+02	-4.947827756587579742e-06	-3.073752117943593931e-01
1.630741521418498451e+04	2.587886230983685891e+02	-4.956863479864832608e-06	-3.073644067836994731e-01
1.630743695331541130e+04	2.585464968184426766e+02	-4.966114429738411470e-06	-3.073536160255944116e-01
1.630745869244583628e+04	2.582994978863650886e+02	-4.975578963622113810e-06	-3.073428394946733921e-01
1.630748043157626307e+04	2.580477120653554834e+02	-4.985255478463404110e-06	-3.073320771656134487e-01
1.630750217070668987e+04	2.577912234937418816e+02	-4.995142436799654188e-06	-3.073213290131379116e-01
1.630752390983711666e+04	2.575301140065725463e+02	-5.005238392574767218e-06	-3.073105950120176288e-01
1.630754564896754346e+04	2.572644624858798466e+02	-5.015542016426732272e-06	-3.072998751370701886e-01
1.630756738809796843e+04	2.569943442471580966e+02	-5.026052120160527141e-06	-3.072891693631599752e-01
1.630758912722839523e+04	2.567198304691719954e+02	-5.036767680127988655e-06	-3.072784776651978911e-01
1.630761086635882202e+04	2.564409876736884826e+02	-5.047687859246706896e-06	-3.072678000181416902e-01
1.630763260548924882e+04	2.561578772611181307e+02	-5.058812027404002808e-06	-3.072571363969955893e-01
1.630765434461967379e+04	2.558705551073716151e+02	-5.070139780008942815e-06	-3.072464867768102681e-01
1.630767608375010059e+04	2.555790712264937952e+02	-5.081670954475361952e-06	-3.072358511326824249e-01
1.630769782288052738e+04	2.552834695028421947e+02	-5.093405644441657326e-06	-3.072252294397555539e-01
1.630771956201095418e+04	2.549837874957297856e+02	-5.105344211558508568e-06	-3.072146216732190016e-01
1.630774130114137915e+04	2.546800563185756516e+02	-5.117487294703185992e-06	-3.072040278083081333e-01
1.630776304027180595e+04	2.543723005937033861e+02	-5.129835816508760922e-06	-3.071934478203046104e-01
1.630778477940223274e+04	2.540605384830120386e+02	-5.142390987127480694e-06	-3.071828816845358356e-01
1.630780651853265954e+04	2.537447817938260073e+02	-5.155154305180071523e-06	-3.071723293763751750e-01
1.630782825766308451e+04	2.534250361583212054e+02	-5.168127555875741244e-06	-3.071617908712414025e-01
1.630784999679351131e+04	2.531013012840358272e+02	-5.181312806321175333e-06	-3.071512661445993664e-01
1.630787173592393810e+04	2.527735712721197103e+02	-5.194712398070447601e-06	-3.071407551719592122e-01
1.630789347505436490e+04	2.524418349991542243e+02	-5.208328937000609024e-06	-3.071302579288768264e-01
1.630791521418478987e+04	2.521060765576168876e+02	-5.222165280630278910e-06	-3.071197743909531708e-01
1.630793695331521667e+04	2.517662757493550885e+02	-5.236224523029170188e-06	-3.071093045338347816e-01
1.630795869244564346e+04	2.514224086258053603e+02	-5.250509977496121642e-06	-3.070988483332132146e-01
1.630798043157607026e+04	2.510744480681298114e+02	-5.265025157210425091e-06	-3.070884057648254895e-01
1.630800217070649524e+04	2.507223643999743103e+02	-5.279773754086334807e-06	-3.070779768044534785e-01
1.630802390983692203e+04	2.503661260251661531e+02	-5.294759616083159732e-06	-3.070675614279241850e-01
1.630804564896734882e+04	2.500057000823776150e+02	-5.309986723242784413e-06	-3.070571596111092982e-01
1.630806738809777562e+04	2.496410531085947184e+02	-5.325459162743050303e-06	-3.070467713299252499e-01
1.630808912722820060e+04	2.492721517031318683e+02	-5.341181103268653815e-06	-3.070363965603334910e-01
1.630811086635862739e+04	2.488989631839489505e+02	-5.357156769010855066e-06	-3.070260352783401592e-01
1.630813260548905419e+04	2.485214562281316546e+02	-5.373390413613782876e-06	-3.070156874599956898e-01
1.630815434461948098e+04	2.481396014886088608e+02	-5.389886294387509415e-06	-3.070053530813949272e-01
1.630817608374990778e+04	2.477533721794868882e+02	-5.406648647107416489e-06	-3.069950321186774578e-01
1.630819782288033275e+04	2.473627446227782229e+02	-5.423681661714624461e-06	-3.069847245480268327e-01
1.630821956201075955e+04	2.469676987497923051e+02	-5.440989459224341826e-06	-3.069744303456712342e-01
1.630824130114118634e+04	2.465682185510240174e+02	-5.458576070137388259e-06	-3.069641494878828092e-01
1.630826304027161314e+04	2.461642924690239340e+02	-5.476445414635243775e-06	-3.069538819509773364e-01
1.630828477940203811e+04	2.457559137294428524e+02	-5.494601284821159353e-06	-3.069436277113151701e-01
1.630830651853246491e+04	2.453430806062176259e+02	-5.513047329248530097e-06	-3.069333867453004627e-01
1.630832825766289170e+04	2.449257966176833747e+02	-5.531787039954137104e-06	-3.069231590293809431e-01
1.630834999679331850e+04	2.445040706512576207e+02	-5.550823742187381699e-06	-3.069129445400481382e-01
1.630837173592374347e+04	2.440779170152286497e+02	-5.570160586997967030e-06	-3.069027432538374844e-01
1.630839347505417027e+04	2.436473554170859472e+02	-5.589800546813681351e-06	-3.068925551473273838e-01
1.630841521418459706e+04	2.432124108687453372e+02	-5.609746414107488340e-06	-3.068823801971407583e-01
1.630843695331502386e+04	2.427731135199214236e+02	-5.630000803219317943e-06	-3.068722183799427183e-01
1.630845869244544883e+04	2.423294984218005936e+02	-5.650566155362791724e-06	-3.068620696724427832e-01
1.630848043157587563e+04	2.418816052240261740e+02	-5.671444746811526099e-06	-3.068519340513928828e-01
1.630850217070630242e+04	2.414294778088372766e+02	-5.692638700223298765e-06	-3.068418114935885788e-01
1.630852390983672922e+04	2.409731638669847200e+02	-5.714149999024549405e-06	-3.068317019758682873e-01
1.630854564896715419e+04	2.405127144207666561e+02	-5.735980504741498800e-06	-3.068216054751137234e-01
1.630856738809758099e+04	2.400481833001900611e+02	-5.758131977129341332e-06	-3.068115219682490680e-01
1.630858912722800778e+04	2.395796265788430048e+02	-5.780606096917054049e-06	-3.068014514322419117e-01
