# time(us)	tip(nm)	Fts(nN)	Xb(nm)
1.630437173592529507e+04	2.926635317222338131e+02	-3.882128655817609497e-06	-2.515672583074533009e-01
1.630439347505572005e+04	2.935633621758342429e+02	-3.858381542170479296e-06	-2.515556697526689645e-01
1.630441521418614684e+04	2.944578175365905395e+02	-3.834991388053454784e-06	-2.515440977265770428e-01
1.630443695331657364e+04	2.953468627793314454e+02	-3.811952679918849550e-06	-2.515325421993773181e-01
1.630445869244700043e+04	2.962304704454514876e+02	-3.789259831856631055e-06	-2.515210031413249725e-01
1.630448043157742541e+04	2.971086206611004172e+02	-3.766907190584212094e-06	-2.515094805227302555e-01
1.630450217070785220e+04	2.979813010707674721e+02	-3.744889042221426043e-06	-2.514979743139597601e-01
1.630452390983827900e+04	2.988485066869204729e+02	-3.723199620724617296e-06	-2.514864844854339809e-01
1.630454564896870579e+04	2.997102396573842498e+02	-3.701833117838258989e-06	-2.514750110076292566e-01
1.630456738809913077e+04	3.005665089531307217e+02	-3.680783694408917346e-06	-2.514635538510767154e-01
1.630458912722955756e+04	3.014173299801223607e+02	-3.660045492894386708e-06	-2.514521129863626636e-01
1.630461086635998436e+04	3.022627241197637318e+02	-3.639612650891060657e-06	-2.514406883841277529e-01
1.630463260549041115e+04	3.031027182033870986e+02	-3.619479315494405361e-06	-2.514292800150675355e-01
1.630465434462083795e+04	3.039373439269855339e+02	-3.599639658301721488e-06	-2.514178878499321312e-01
1.630467608375126292e+04	3.047666372131373009e+02	-3.580087890862354232e-06	-2.514065118595262271e-01
1.630469782288168972e+04	3.055906375276966855e+02	-3.560818280378880901e-06	-2.513951520147085783e-01
1.630471956201211651e+04	3.064093871593719314e+02	-3.541825165463150663e-06	-2.513838082863925072e-01
1.630474130114254331e+04	3.072229304707585129e+02	-3.523102971753501101e-06	-2.513724806455455707e-01
1.630476304027296828e+04	3.080313131297361338e+02	-3.504646227203885017e-06	-2.513611690631889495e-01
1.630478477940339508e+04	3.088345813303688487e+02	-3.486449576862316425e-06	-2.513498735103983361e-01
1.630480651853382187e+04	3.096327810125698647e+02	-3.468507796964300662e-06	-2.513385939583030471e-01
1.630482825766424867e+04	3.104259570898054221e+02	-3.450815808177150396e-06	-2.513273303780861334e-01
1.630484999679467364e+04	3.112141526940002905e+02	-3.433368687843048127e-06	-2.513160827409841036e-01
1.630487173592510044e+04	3.119974084466008435e+02	-3.416161681082166665e-06	-2.513048510182874784e-01
1.630489347505552723e+04	3.127757617644169841e+02	-3.399190210632118090e-06	-2.512936351813401248e-01
1.630491521418595403e+04	3.135492462084446856e+02	-3.382449885316036479e-06	-2.512824352015390339e-01
1.630493695331637900e+04	3.143178908833347691e+02	-3.365936507048864707e-06	-2.512712510503346541e-01
1.630495869244680580e+04	3.150817198945566133e+02	-3.349646076309410482e-06	-2.512600826992304470e-01
1.630498043157723259e+04	3.158407518695923955e+02	-3.333574796024476915e-06	-2.512489301197833313e-01
1.630500217070765939e+04	3.165949995487195565e+02	-3.317719073830355779e-06	-2.512377932836025729e-01
1.630502390983808436e+04	3.173444694500837500e+02	-3.302075522696377597e-06	-2.512266721623507282e-01
1.630504564896851116e+04	3.180891616128549799e+02	-3.286640959914388199e-06	-2.512155667277433113e-01
1.630506738809893795e+04	3.188290694213114307e+02	-3.271412404477046655e-06	-2.512044769515479614e-01
1.630508912722936475e+04	3.195641795117003880e+02	-3.256387072886306448e-06	-2.511934028055849977e-01
1.630511086635978972e+04	3.202944717627202635e+02	-3.241562373451252782e-06	-2.511823442617275859e-01
1.630513260549021652e+04	3.210199193694496671e+02	-3.226935899151322716e-06	-2.511713012919010168e-01
1.630515434462064331e+04	3.217404889995258941e+02	-3.212505419156685866e-06	-2.511602738680829838e-01
1.630517608375107011e+04	3.224561410293804897e+02	-3.198268869112087008e-06	-2.511492619623030276e-01
1.630519782288149690e+04	3.231668298573650873e+02	-3.184224340303403107e-06	-2.511382655466433134e-01
1.630521956201192188e+04	3.238725042896603554e+02	-3.170370067837671232e-06	-2.511272845932371323e-01
1.630524130114234868e+04	3.245731079939835695e+02	-3.156704417977074129e-06	-2.511163190742707330e-01
1.630526304027277547e+04	3.252685800152868865e+02	-3.143225874775268800e-06	-2.511053689619813234e-01
1.630528477940320226e+04	3.259588553468831833e+02	-3.129933026170642028e-06	-2.510944342286581810e-01
1.630530651853362724e+04	3.266438655497742047e+02	-3.116824549695151010e-06	-2.510835148466421529e-01
1.630532825766405404e+04	3.273235394123639708e+02	-3.103899197959852646e-06	-2.510726107883252123e-01
1.630534999679448083e+04	3.279978036422691048e+02	-3.091155784078376230e-06	-2.510617220261514015e-01
1.630537173592490763e+04	3.286665835815413743e+02	-3.078593167188336864e-06	-2.510508485326155004e-01
1.630539347505533260e+04	3.293298039363486964e+02	-3.066210238227218330e-06	-2.510399902802638583e-01
1.630541521418575940e+04	3.299873895119911822e+02	-3.054005906114263408e-06	-2.510291472416935066e-01
1.630543695331618619e+04	3.306392659440728039e+02	-3.041979084483205818e-06	-2.510183193895530462e-01
1.630545869244661299e+04	3.312853604167102617e+02	-3.030128679102366858e-06	-2.510075066965414270e-01
1.630548043157703796e+04	3.319256023588251878e+02	-3.018453576109105184e-06	-2.509967091354089463e-01
1.630550217070746476e+04	3.325599241098469747e+02	-3.006952631174550175e-06	-2.509859266789561949e-01
1.630552390983789155e+04	3.331882615465372623e+02	-2.995624659702586241e-06	-2.509751593000347780e-01
1.630554564896831835e+04	3.338105546631329048e+02	-2.984468428153992500e-06	-2.509644069715464276e-01
1.630556738809874332e+04	3.344267480975895523e+02	-2.973482646572786480e-06	-2.509536696664438349e-01
1.630558912722917012e+04	3.350367915973704385e+02	-2.962665962377351069e-06	-2.509429473577294289e-01
1.630561086635959691e+04	3.356406404189847876e+02	-2.952016955463969555e-06	-2.509322400184563207e-01
1.630563260549002371e+04	3.362382556562903346e+02	-2.941534134655138550e-06	-2.509215476217279694e-01
1.630565434462044868e+04	3.368296044934648990e+02	-2.931215935509585063e-06	-2.509108701406971287e-01
1.630567608375087548e+04	3.374146603794819157e+02	-2.921060719495471704e-06	-2.509002075485672889e-01
1.630569782288130227e+04	3.379934031218895711e+02	-2.911066774513187118e-06	-2.508895598185915676e-01
1.630571956201172907e+04	3.385658188986982964e+02	-2.901232316739112245e-06	-2.508789269240728204e-01
1.630574130114215404e+04	3.391319001881866484e+02	-2.891555493747383964e-06	-2.508683088383633075e-01
1.630576304027258084e+04	3.396916456174546397e+02	-2.882034388852929477e-06	-2.508577055348655827e-01
1.630578477940300763e+04	3.402450597315514642e+02	-2.872667026605971677e-06	-2.508471169870311601e-01
1.630580651853343443e+04	3.407921526859902315e+02	-2.863451379356106317e-06	-2.508365431683612368e-01
1.630582825766386122e+04	3.413329398664064342e+02	-2.854385374792902704e-06	-2.508259840524059703e-01
1.630584999679428620e+04	3.418674414400200021e+02	-2.845466904359850851e-06	-2.508154396127652008e-01
1.630587173592471299e+04	3.423956818443995758e+02	-2.836693832429841218e-06	-2.508049098230876739e-01
1.630589347505513979e+04	3.429176892198061637e+02	-2.828064006122627666e-06	-2.507943946570713178e-01
1.630591521418556658e+04	3.434334947920946206e+02	-2.819575265638650166e-06	-2.507838940884625223e-01
1.630593695331599156e+04	3.439431322137602933e+02	-2.811225454978777998e-06	-2.507734080910573038e-01
1.630595869244641835e+04	3.444466368712415942e+02	-2.803012432916312075e-06	-2.507629366386999736e-01
1.630598043157684515e+04	3.449440451670116659e+02	-2.794934084085681292e-06	-2.507524797052835264e-01
1.630600217070727194e+04	3.454353937853069283e+02	-2.786988330052118758e-06	-2.507420372647496398e-01
1.630602390983769692e+04	3.459207189505498263e+02	-2.779173140227773068e-06	-2.507316092910885641e-01
1.630604564896812371e+04	3.464000556876236487e+02	-2.771486542502455868e-06	-2.507211957583387885e-01
1.630606738809855051e+04	3.468734370931377384e+02	-2.763926633461548110e-06	-2.507107966405872634e-01
1.630608912722897730e+04	3.473408936267009040e+02	-2.756491588069159577e-06	-2.507004119119689012e-01
1.630611086635940228e+04	3.478024524309812477e+02	-2.749179668701690370e-06	-2.506900415466671861e-01
1.630613260548982907e+04	3.482581366889905325e+02	-2.741989233425237619e-06	-2.506796855189133977e-01
1.630615434462025587e+04	3.487079650265810074e+02	-2.734918743419813008e-06	-2.506693438029864440e-01
1.630617608375068266e+04	3.491519509676006692e+02	-2.727966769463906837e-06	-2.506590163732138055e-01
1.630619782288110764e+04	3.495901024485141306e+02	-2.721131997404465015e-06	-2.506487032039701468e-01
1.630621956201153444e+04	3.500224213985829351e+02	-2.714413232549658251e-06	-2.506384042696780390e-01
1.630624130114196123e+04	3.504489033909028421e+02	-2.707809402934858141e-06	-2.506281195448077370e-01
1.630626304027238803e+04	3.508695373687362462e+02	-2.701319561425769999e-06	-2.506178490038769024e-01
1.630628477940281300e+04	3.512843054506682279e+02	-2.694942886636514082e-06	-2.506075926214504923e-01
1.630630651853323980e+04	3.516931828171589132e+02	-2.688678682654493195e-06	-2.505973503721407591e-01
1.630632825766366659e+04	3.520961376800761400e+02	-2.682526377577929322e-06	-2.505871222306077506e-01
1.630634999679409339e+04	3.524931313357873250e+02	-2.676485520885901286e-06	-2.505769081715579216e-01
1.630637173592452018e+04	3.528841183013774980e+02	-2.670555779674126094e-06	-2.505667081697453558e-01
1.630639347505494516e+04	3.532690465325478044e+02	-2.664736933802936110e-06	-2.505565221999707104e-01
1.630641521418537195e+04	3.536478577207622038e+02	-2.659028870016249677e-06	-2.505463502370815498e-01
1.630643695331579875e+04	3.540204876662460265e+02	-2.653431575101893994e-06	-2.505361922559727894e-01
1.630645869244622554e+04	3.543868667225214608e+02	-2.647945128174428965e-06	-2.505260482315854742e-01
1.630648043157665052e+04	3.547469203072993196e+02	-2.642569692171143933e-06	-2.505159181389072232e-01
1.630650217070707731e+04	3.551005694737359590e+02	-2.637305504660499132e-06	-2.505058019529726732e-01
1.630652390983750411e+04	3.554477315353423705e+02	-2.632152868069379300e-06	-2.504956996488625354e-01
1.630654564896793090e+04	3.557883207371738763e+02	-2.627112139441642874e-06	-2.504856112017040948e-01
1.630656738809835588e+04	3.561222489653742969e+02	-2.622183719844814551e-06	-2.504755365866707106e-01
1.630658912722878267e+04	3.564494264866841604e+02	-2.617368043545108833e-06	-2.504654757789821495e-01
1.630661086635920947e+04	3.567697627091615686e+02	-2.612665567072587463e-06	-2.504554287539039747e-01
1.630663260548963626e+04	3.570831669551090499e+02	-2.608076758298667454e-06	-2.504453954867482124e-01
1.630665434462006124e+04	3.573895492370536999e+02	-2.603602085647127865e-06	-2.504353759528721857e-01
1.630667608375048803e+04	3.576888210275990332e+02	-2.599242007557261760e-06	-2.504253701276797361e-01
1.630669782288091483e+04	3.579808960140414911e+02	-2.594996962314140725e-06	-2.504153779866201135e-01
1.630671956201134162e+04	3.582656908288300883e+02	-2.590867358355977041e-06	-2.504053995051881421e-01
1.630674130114176660e+04	3.585431257472569655e+02	-2.586853565162270517e-06	-2.503954346589244429e-01
1.630676304027219339e+04	3.588131253441530362e+02	-2.582955904819302578e-06	-2.503854834234151561e-01
1.630678477940262019e+04	3.590756191018793970e+02	-2.579174644351144011e-06	-2.503755457742916080e-01
1.630680651853304698e+04	3.593305419624920773e+02	-2.575509988895246878e-06	-2.503656216872306439e-01
1.630682825766347196e+04	3.595778348176415307e+02	-2.571962075791720286e-06	-2.503557111379541844e-01
1.630684999679389875e+04	3.598174449305297458e+02	-2.568530969644763233e-06	-2.503458141022296690e-01
1.630687173592432555e+04	3.600493262850779956e+02	-2.565216658403554121e-06	-2.503359305558692238e-01
1.630689347505475234e+04	3.602734398583404527e+02	-2.562019050498308275e-06	-2.503260604747300500e-01
1.630691521418517732e+04	3.604897538131405668e+02	-2.558937973055310162e-06	-2.503162038347144236e-01
1.630693695331560411e+04	3.606982436088732129e+02	-2.555973171202655119e-06	-2.503063606117691964e-01
1.630695869244603091e+04	3.608988920294156628e+02	-2.553124308466276647e-06	-2.502965307818861840e-01
1.630698043157645770e+04	3.610916891280942309e+02	-2.550390968243843024e-06	-2.502867143211018885e-01
1.630700217070688450e+04	3.612766320906657711e+02	-2.547772656332146926e-06	-2.502769112054970546e-01
1.630702390983730947e+04	3.614537250182677326e+02	-2.545268804472131430e-06	-2.502671214111970577e-01
1.630704564896773627e+04	3.616229786332592084e+02	-2.542878774864551405e-06	-2.502573449143720707e-01
1.630706738809816306e+04	3.617844099118145209e+02	-2.540601865598646638e-06	-2.502475816912360651e-01
1.630708912722858986e+04	3.619380416480141776e+02	-2.538437316926356699e-06	-2.502378317180474210e-01
1.630711086635901484e+04	3.620839019550101057e+02	-2.536384318305299948e-06	-2.502280949711085389e-01
1.630713260548944163e+04	3.622220237095983748e+02	-2.534442016125523278e-06	-2.502183714267665060e-01
1.630715434461986843e+04	3.623524439472191716e+02	-2.532609522027516849e-06	-2.502086610614115414e-01
1.630717608375029522e+04	3.624752032149947922e+02	-2.530885921712653129e-06	-2.501989638514782732e-01
1.630719782288072020e+04	3.625903448909219833e+02	-2.529270284141915143e-06	-2.501892797734450169e-01
1.630721956201114699e+04	3.626979144777374700e+02	-2.527761671014534395e-06	-2.501796088038338861e-01
1.630724130114157379e+04	3.627979588802720627e+02	-2.526359146415274311e-06	-2.501699509192106818e-01
1.630726304027200058e+04	3.628905256753001822e+02	-2.525061786517343002e-06	-2.501603060961847258e-01
1.630728477940242556e+04	3.629756623829728710e+02	-2.523868689227406657e-06	-2.501506743114086384e-01
1.630730651853285235e+04	3.630534157488883693e+02	-2.522778983660010513e-06	-2.501410555415790049e-01
1.630732825766327915e+04	3.631238310457135867e+02	-2.521791839330811555e-06	-2.501314497634351541e-01
1.630734999679370594e+04	3.631869514030198616e+02	-2.520906474961279329e-06	-2.501218569537600467e-01
1.630737173592413092e+04	3.632428171736371496e+02	-2.520122166792181594e-06	-2.501122770893795533e-01
1.630739347505455771e+04	3.632914653443720567e+02	-2.519438256308835240e-06	-2.501027101471630099e-01
1.630741521418498451e+04	3.633329289983809076e+02	-2.518854157288030349e-06	-2.500931561040222184e-01
1.630743695331541130e+04	3.633672368358490417e+02	-2.518369362084380925e-06	-2.500836149369123351e-01
1.630745869244583628e+04	3.633944127588939637e+02	-2.517983447082811932e-06	-2.500740866228312598e-01
1.630748043157626307e+04	3.634144755258228656e+02	-2.517696077253583568e-06	-2.500645711388197467e-01
1.630750217070668987e+04	3.634274384790069234e+02	-2.517507009756771791e-06	-2.500550684619609054e-01
1.630752390983711666e+04	3.634333093497291429e+02	-2.517416096554202407e-06	-2.500455785693808664e-01
1.630754564896754346e+04	3.634320901424050589e+02	-2.517423285998561111e-06	-2.500361014382479485e-01
1.630756738809796843e+04	3.634237770995976007e+02	-2.517528623381230259e-06	-2.500266370457732146e-01
1.630758912722839523e+04	3.634083607482472758e+02	-2.517732250432728740e-06	-2.500171853692100266e-01
1.630761086635882202e+04	3.633858260265344597e+02	-2.518034403781837920e-06	-2.500077463858537685e-01
1.630763260548924882e+04	3.633561524897950221e+02	-2.518435412391668482e-06	-2.499983200730423460e-01
1.630765434461967379e+04	3.633193145929332104e+02	-2.518935694002961888e-06	-2.499889064081556311e-01
1.630767608375010059e+04	3.632752820458306360e+02	-2.519535750626425820e-06	-2.499795053686156843e-01
1.630769782288052738e+04	3.632240202373478724e+02	-2.520236163137105013e-06	-2.499701169318864213e-01
1.630771956201095418e+04	3.631654907226666182e+02	-2.521037585034157400e-06	-2.499607410754737802e-01
1.630774130114137915e+04	3.630996517679369617e+02	-2.521940735439177698e-06	-2.499513777769253320e-01
1.630776304027180595e+04	3.630264589454843076e+02	-2.522946391415041334e-06	-2.499420270138305034e-01
1.630778477940223274e+04	3.629458657722047974e+02	-2.524055379695096125e-06	-2.499326887638204098e-01
1.630780651853265954e+04	3.628578243832374142e+02	-2.525268567919390098e-06	-2.499233630045678001e-01
1.630782825766308451e+04	3.627622862325675328e+02	-2.526586855480301504e-06	-2.499140497137865846e-01
1.630784999679351131e+04	3.626592028118712392e+02	-2.528011164084490720e-06	-2.499047488692324737e-01
1.630787173592393810e+04	3.625485263786866312e+02	-2.529542428141318392e-06	-2.498954604487025055e-01
1.630789347505436490e+04	3.624302106848713834e+02	-2.531181585089992185e-06	-2.498861844300347412e-01
1.630791521418478987e+04	3.623042116962938621e+02	-2.532929565778429122e-06	-2.498769207911087642e-01
1.630793695331521667e+04	3.621704882948089335e+02	-2.534787285006343641e-06	-2.498676695098448197e-01
1.630795869244564346e+04	3.620290029537741248e+02	-2.536755632343291438e-06	-2.498584305642045922e-01
1.630798043157607026e+04	3.618797223786823452e+02	-2.538835463329434137e-06	-2.498492039321906777e-01
1.630800217070649524e+04	3.617226181048998228e+02	-2.541027591162638088e-06	-2.498399895918465285e-01
1.630802390983692203e+04	3.615576670450250845e+02	-2.543332778970175831e-06	-2.498307875212562590e-01
1.630804564896734882e+04	3.613848519789830789e+02	-2.545751732756939636e-06	-2.498215976985447562e-01
1.630806738809777562e+04	3.612041619806695394e+02	-2.548285095114701872e-06	-2.498124201018777635e-01
1.630808912722820060e+04	3.610155927757240306e+02	-2.550933439768659391e-06	-2.498032547094614642e-01
1.630811086635862739e+04	3.608191470258493041e+02	-2.553697267028295284e-06	-2.497941014995426756e-01
1.630813260548905419e+04	3.606148345359856080e+02	-2.556577000199795389e-06	-2.497849604504081833e-01
1.630815434461948098e+04	3.604026723815813398e+02	-2.559572983006693212e-06	-2.497758315403859064e-01
1.630817608374990778e+04	3.601826849541753859e+02	-2.562685478054390621e-06	-2.497667147478430938e-01
1.630819782288033275e+04	3.599549039244988080e+02	-2.565914666362749394e-06	-2.497576100511881836e-01
1.630821956201075955e+04	3.597193681233035250e+02	-2.569260647979129625e-06	-2.497485174288690268e-01
1.630824130114118634e+04	3.594761233411276748e+02	-2.572723443672402673e-06	-2.497394368593739422e-01
1.630826304027161314e+04	3.592252220491905632e+02	-2.576302997696352959e-06	-2.497303683212307168e-01
1.630828477940203811e+04	3.589667230445703581e+02	-2.579999181598996886e-06	-2.497213117930076332e-01
1.630830651853246491e+04	3.587006910237373631e+02	-2.583811799042574273e-06	-2.497122672533125531e-01
1.630832825766289170e+04	3.584271960893854043e+02	-2.587740591587460742e-06	-2.497032346807929737e-01
1.630834999679331850e+04	3.581463131963163846e+02	-2.591785245382295674e-06	-2.496942140541363875e-01
1.630837173592374347e+04	3.578581215428720839e+02	-2.595945398692058248e-06	-2.496852053520693393e-01
1.630839347505417027e+04	3.575627039150670043e+02	-2.600220650186100605e-06	-2.496762085533584252e-01
1.630841521418459706e+04	3.572601459911558663e+02	-2.604610567899005532e-06	-2.496672236368096265e-01
1.630843695331502386e+04	3.569505356148447390e+02	-2.609114698769063873e-06	-2.496582505812680319e-01
1.630845869244544883e+04	3.566339620457335400e+02	-2.613732578652031008e-06	-2.496492893656181711e-01
1.630848043157587563e+04	3.563105151958595798e+02	-2.618463742701667248e-06	-2.496403399687840141e-01
1.630850217070630242e+04	3.559802848613767310e+02	-2.623307736003663890e-06	-2.496314023697283890e-01
1.630852390983672922e+04	3.556433599584547096e+02	-2.628264124346039835e-06	-2.496224765474533147e-01
1.630854564896715419e+04	3.552998277724472018e+02	-2.633332505006454726e-06	-2.496135624810000564e-01
1.630856738809758099e+04	3.549497732291972625e+02	-2.638512517436089201e-06	-2.496046601494484041e-01
1.630858912722800778e+04	3.545932781970889778e+02	-2.643803853719957568e-06	-2.495957695319172831e-01
