# time(us)	tip(nm)	Fts(nN)	Xb(nm)
1.630437173592529507e+04	4.323365721618153401e+01	-1.736594893035811583e-04	-3.801468817079687312e-01
1.630439347505572005e+04	4.325399859201931463e+01	-1.734974588715849583e-04	-3.801325940003766890e-01
1.630441521418614684e+04	4.327306502474754524e+01	-1.733457151669413074e-04	-3.801183256525983434e-01
1.630443695331657364e+04	4.329083279213302404e+01	-1.732044062168866159e-04	-3.801040766300159968e-01
1.630445869244700043e+04	4.330727915222708191e+01	-1.730736743610221981e-04	-3.800898468980759559e-01
1.630448043157742541e+04	4.332238251734406020e+01	-1.729536550647593491e-04	-3.800756364222890871e-01
1.630450217070785220e+04	4.333612262152458783e+01	-1.728444757828505231e-04	-3.800614451682299832e-01
1.630452390983827900e+04	4.334848067958130713e+01	-1.727462548848553983e-04	-3.800472731015375749e-01
1.630454564896870579e+04	4.335943953591565503e+01	-1.726591006536683443e-04	-3.800331201879149079e-01
1.630456738809913077e+04	4.336898380140858933e+01	-1.725831103674167278e-04	-3.800189863931280887e-01
1.630458912722955756e+04	4.337709997682210883e+01	-1.725183694741188115e-04	-3.800048716830075057e-01
1.630461086635998436e+04	4.338377656130184334e+01	-1.724649508674887450e-04	-3.799907760234467746e-01
1.630463260549041115e+04	4.338900414474059630e+01	-1.724229142712128385e-04	-3.799766993804031823e-01
1.630465434462083795e+04	4.339277548294833764e+01	-1.723923057378800531e-04	-3.799626417198970207e-01
1.630467608375126292e+04	4.339508555477188878e+01	-1.723731572675718743e-04	-3.799486030080120313e-01
1.630469782288168972e+04	4.339593160051544629e+01	-1.723654865498892798e-04	-3.799345832108952936e-01
1.630471956201211651e+04	4.339531314122970684e+01	-1.723692968319431016e-04	-3.799205822947556155e-01
1.630474130114254331e+04	4.339323197865789439e+01	-1.723845769135587088e-04	-3.799066002258661978e-01
1.630476304027296828e+04	4.338969217585104587e+01	-1.724113012696673077e-04	-3.798926369705619699e-01
1.630478477940339508e+04	4.338470001868817150e+01	-1.724494302985730607e-04	-3.798786924952405331e-01
1.630480651853382187e+04	4.337826395875767105e+01	-1.724989106935137788e-04	-3.798647667663626049e-01
1.630482825766424867e+04	4.337039453827151192e+01	-1.725596759336882520e-04	-3.798508597504502426e-01
1.630484999679467364e+04	4.336110429788932663e+01	-1.726316468897099788e-04	-3.798369714140886755e-01
1.630487173592510044e+04	4.335040766852716843e+01	-1.727147325372663331e-04	-3.798231017239248053e-01
1.630489347505552723e+04	4.333832084840780396e+01	-1.728088307716456665e-04	-3.798092506466674845e-01
1.630491521418595403e+04	4.332486166677689710e+01	-1.729138293147375587e-04	-3.797954181490877379e-01
1.630493695331637900e+04	4.331004943586006561e+01	-1.730296067051274888e-04	-3.797816041980182078e-01
1.630495869244680580e+04	4.329390479276740678e+01	-1.731560333610017801e-04	-3.797678087603533204e-01
1.630498043157723259e+04	4.327644953316172405e+01	-1.732929727047765548e-04	-3.797540318030486195e-01
1.630500217070765939e+04	4.325770643859610232e+01	-1.734402823376578304e-04	-3.797402732931218772e-01
1.630502390983808436e+04	4.323769909949122336e+01	-1.735978152517514135e-04	-3.797265331976512059e-01
1.630504564896851116e+04	4.321645173576434473e+01	-1.737654210668703228e-04	-3.797128114837768909e-01
1.630506738809893795e+04	4.319398901713942251e+01	-1.739429472788500697e-04	-3.796991081186994466e-01
1.630508912722936475e+04	4.317033588516029852e+01	-1.741302405059758811e-04	-3.796854230696808941e-01
1.630511086635978972e+04	4.314551737889689775e+01	-1.743271477200672979e-04	-3.796717563040440391e-01
1.630513260549021652e+04	4.311955846627864020e+01	-1.745335174488528809e-04	-3.796581077891721390e-01
1.630515434462064331e+04	4.309248388291052834e+01	-1.747492009364972352e-04	-3.796444774925096799e-01
1.630517608375107011e+04	4.306431798012522449e+01	-1.749740532495350123e-04	-3.796308653815609335e-01
1.630519782288149690e+04	4.303508458390241742e+01	-1.752079343159983259e-04	-3.796172714238910118e-01
1.630521956201192188e+04	4.300480686614459813e+01	-1.754507098862062781e-04	-3.796036955871249785e-01
1.630524130114234868e+04	4.297350722963843594e+01	-1.757022524045103980e-04	-3.795901378389489600e-01
1.630526304027277547e+04	4.294120720785529244e+01	-1.759624417822514811e-04	-3.795765981471082018e-01
1.630528477940320226e+04	4.290792738055519351e+01	-1.762311660632652987e-04	-3.795630764794075129e-01
1.630530651853362724e+04	4.287368730595731847e+01	-1.765083219744833956e-04	-3.795495728037135419e-01
1.630532825766405404e+04	4.283850547003168430e+01	-1.767938153554711683e-04	-3.795360870879502246e-01
1.630534999679448083e+04	4.280239925324944039e+01	-1.770875614621453926e-04	-3.795226193001026704e-01
1.630537173592490763e+04	4.276538491491092486e+01	-1.773894851413722166e-04	-3.795091694082152745e-01
1.630539347505533260e+04	4.272747759494927067e+01	-1.776995208746721911e-04	-3.794957373803913292e-01
1.630541521418575940e+04	4.268869133288914242e+01	-1.780176126908085833e-04	-3.794823231847940792e-01
1.630543695331618619e+04	4.264903910342601989e+01	-1.783437139486114629e-04	-3.794689267896447227e-01
1.630545869244661299e+04	4.260853286788375982e+01	-1.786777869929614374e-04	-3.794555481632251870e-01
1.630548043157703796e+04	4.256718364061074311e+01	-1.790198026884060197e-04	-3.794421872738749646e-01
1.630550217070746476e+04	4.252500156918944896e+01	-1.793697398363874353e-04	-3.794288440899932779e-01
1.630552390983789155e+04	4.248199602716275081e+01	-1.797275844835124743e-04	-3.794155185800374697e-01
1.630554564896831835e+04	4.243817571782523856e+01	-1.800933291296633683e-04	-3.794022107125240573e-01
1.630556738809874332e+04	4.239354878749109190e+01	-1.804669718460257769e-04	-3.793889204560272899e-01
1.630558912722917012e+04	4.234812294653344367e+01	-1.808485153142743796e-04	-3.793756477791805914e-01
1.630561086635959691e+04	4.230190559639443393e+01	-1.812379657991966119e-04	-3.793623926506753952e-01
1.630563260549002371e+04	4.225490396069253762e+01	-1.816353320679402888e-04	-3.793491550392612544e-01
1.630565434462044868e+04	4.220712521850388299e+01	-1.820406242698288223e-04	-3.793359349137456760e-01
1.630567608375087548e+04	4.215857663786882625e+01	-1.824538527912809339e-04	-3.793227322429944537e-01
1.630569782288130227e+04	4.210926570757405329e+01	-1.828750271008160167e-04	-3.793095469959308352e-01
1.630571956201172907e+04	4.205920026528328037e+01	-1.833041545993881606e-04	-3.792963791415365216e-01
1.630574130114215404e+04	4.200838862013685571e+01	-1.837412394913877551e-04	-3.792832286488498905e-01
1.630576304027258084e+04	4.195683966801122011e+01	-1.841862816915759639e-04	-3.792700954869672181e-01
1.630578477940300763e+04	4.190456299772184678e+01	-1.846392757829658324e-04	-3.792569796250426228e-01
1.630580651853343443e+04	4.185156898656845215e+01	-1.851002100402391617e-04	-3.792438810322872889e-01
1.630582825766386122e+04	4.179786888375543441e+01	-1.855690655327068769e-04	-3.792307996779692991e-01
1.630584999679428620e+04	4.174347488037311393e+01	-1.860458153200679682e-04	-3.792177355314143017e-01
1.630587173592471299e+04	4.168840016479551025e+01	-1.865304237533172847e-04	-3.792046885620043439e-01
1.630589347505513979e+04	4.163265896253327014e+01	-1.870228458921026327e-04	-3.791916587391790383e-01
1.630591521418556658e+04	4.157626655977704644e+01	-1.875230270486413352e-04	-3.791786460324341745e-01
1.630593695331599156e+04	4.151923931007162594e+01	-1.880309024669875068e-04	-3.791656504113228299e-01
1.630595869244641835e+04	4.146159462377412552e+01	-1.885463971450184167e-04	-3.791526718454542033e-01
1.630598043157684515e+04	4.140335094016759143e+01	-1.890694258049576608e-04	-3.791397103044934491e-01
1.630600217070727194e+04	4.134452768231951580e+01	-1.895998930166478648e-04	-3.791267657581637862e-01
1.630602390983769692e+04	4.128514519499494639e+01	-1.901376934760737921e-04	-3.791138381762429455e-01
1.630604564896812371e+04	4.122522466614710623e+01	-1.906827124398953151e-04	-3.791009275285653346e-01
1.630606738809855051e+04	4.116478803271975551e+01	-1.912348263149468654e-04	-3.790880337850215942e-01
1.630608912722897730e+04	4.110385787169383320e+01	-1.917939033998529972e-04	-3.790751569155584866e-01
1.630611086635940228e+04	4.104245727750180350e+01	-1.923598047740890230e-04	-3.790622968901780632e-01
1.630613260548982907e+04	4.098060972710782579e+01	-1.929323853280196974e-04	-3.790494536789384972e-01
1.630615434462025587e+04	4.091833893421340917e+01	-1.935114949256863150e-04	-3.790366272519530844e-01
1.630617608375068266e+04	4.085566869418953218e+01	-1.940969796904155366e-04	-3.790238175793914088e-01
1.630619782288110764e+04	4.079262272146074508e+01	-1.946886834017034086e-04	-3.790110246314781217e-01
1.630621956201153444e+04	4.072922448116872118e+01	-1.952864489903146815e-04	-3.789982483784925527e-01
1.630624130114196123e+04	4.066549701702328434e+01	-1.958901201171434417e-04	-3.789854887907703751e-01
1.630626304027238803e+04	4.060146277730662234e+01	-1.964995428201378686e-04	-3.789727458387014414e-01
1.630628477940281300e+04	4.053714344102925793e+01	-1.971145672125129852e-04	-3.789600194927307819e-01
1.630630651853323980e+04	4.047255974624636110e+01	-1.977350492145724841e-04	-3.789473097233590493e-01
1.630632825766366659e+04	4.040773132252764555e+01	-1.983608523007670361e-04	-3.789346165011404088e-01
1.630634999679409339e+04	4.034267652953457173e+01	-1.989918492431340738e-04	-3.789219397966852032e-01
1.630637173592452018e+04	4.027741230359623614e+01	-1.996279238320063825e-04	-3.789092795806569547e-01
1.630639347505494516e+04	4.021195401408898817e+01	-2.002689725548559589e-04	-3.788966358237745302e-01
1.630641521418537195e+04	4.014631533131699825e+01	-2.009149062143640281e-04	-3.788840084968109201e-01
1.630643695331579875e+04	4.008050810746267700e+01	-2.015656514672750491e-04	-3.788713975705932935e-01
1.630645869244622554e+04	4.001454227202805924e+01	-2.022211522662995453e-04	-3.788588030160034981e-01
1.630648043157665052e+04	3.994842574302397509e+01	-2.028813711882852930e-04	-3.788462248039764502e-01
1.630650217070707731e+04	3.988216435498284795e+01	-2.035462906330516748e-04	-3.788336629055022442e-01
1.630652390983750411e+04	3.981576180467865811e+01	-2.042159138786810862e-04	-3.788211172916239322e-01
1.630654564896793090e+04	3.974921961523305924e+01	-2.048902659806595876e-04	-3.788085879334388006e-01
1.630656738809835588e+04	3.968253711907459547e+01	-2.055693945040398514e-04	-3.787960748020975932e-01
1.630658912722878267e+04	3.961571146000014920e+01	-2.062533700797362978e-04	-3.787835778688050659e-01
1.630661086635920947e+04	3.954873761436630986e+01	-2.069422867781390218e-04	-3.787710971048183217e-01
1.630663260548963626e+04	3.948160843121751640e+01	-2.076362622954037421e-04	-3.787586324814498639e-01
1.630665434462006124e+04	3.941431469093832618e+01	-2.083354379500348833e-04	-3.787461839700628774e-01
1.630667608375048803e+04	3.934684518180318946e+01	-2.090399784896678468e-04	-3.787337515420761691e-01
1.630669782288091483e+04	3.927918679359054011e+01	-2.097500717102699134e-04	-3.787213351689598939e-01
1.630671956201134162e+04	3.921132462723130629e+01	-2.104659278922669130e-04	-3.787089348222376084e-01
1.630674130114176660e+04	3.914324211927851138e+01	-2.111877790603354174e-04	-3.786965504734866039e-01
1.630676304027219339e+04	3.907492117981426105e+01	-2.119158780757580659e-04	-3.786841820943354087e-01
1.630678477940262019e+04	3.900634234225870500e+01	-2.126504975722852593e-04	-3.786718296564668962e-01
1.630680651853304698e+04	3.893748492341062928e+01	-2.133919287483498233e-04	-3.786594931316154544e-01
1.630682825766347196e+04	3.886832719193588304e+01	-2.141404800302278675e-04	-3.786471724915681514e-01
1.630684999679389875e+04	3.879884654342723138e+01	-2.148964756222985009e-04	-3.786348677081641800e-01
1.630687173592432555e+04	3.872901968008975615e+01	-2.156602539619146815e-04	-3.786225787532961351e-01
1.630689347505475234e+04	3.865882279305910885e+01	-2.164321660975417440e-04	-3.786103055989071264e-01
1.630691521418517732e+04	3.858823174533851130e+01	-2.172125740097289020e-04	-3.785980482169938877e-01
1.630693695331560411e+04	3.851722225334128780e+01	-2.180018488951646679e-04	-3.785858065796037786e-01
1.630695869244603091e+04	3.844577006505331696e+01	-2.188003694344902209e-04	-3.785735806588372832e-01
1.630698043157645770e+04	3.837385113287909633e+01	-2.196085200647405014e-04	-3.785613704268460666e-01
1.630700217070688450e+04	3.830144177930838367e+01	-2.204266892772305817e-04	-3.785491758558331421e-01
1.630702390983730947e+04	3.822851885363728996e+01	-2.212552679614116673e-04	-3.785369969180540362e-01
1.630704564896773627e+04	3.815505987809340382e+01	-2.220946478146883045e-04	-3.785248335858150681e-01
1.630706738809816306e+04	3.808104318185187509e+01	-2.229452198374530113e-04	-3.785126858314741272e-01
1.630708912722858986e+04	3.800644802158380031e+01	-2.238073729316218024e-04	-3.785005536274403948e-01
1.630711086635901484e+04	3.793125468734929484e+01	-2.246814926197966656e-04	-3.784884369461746223e-01
1.630713260548944163e+04	3.785544459283241991e+01	-2.255679599008264449e-04	-3.784763357601881872e-01
1.630715434461986843e+04	3.777900034911140636e+01	-2.264671502560267763e-04	-3.784642500420438149e-01
1.630717608375029522e+04	3.770190582136429214e+01	-2.273794328186370701e-04	-3.784521797643549679e-01
1.630719782288072020e+04	3.762414616812181833e+01	-2.283051697172866013e-04	-3.784401248997862344e-01
1.630721956201114699e+04	3.754570786289770012e+01	-2.292447156023076106e-04	-3.784280854210522738e-01
1.630724130114157379e+04	3.746657869824366571e+01	-2.301984173617094905e-04	-3.784160613009189822e-01
1.630726304027200058e+04	3.738674777249480030e+01	-2.311666140315154279e-04	-3.784040525122029375e-01
1.630728477940242556e+04	3.730620545968430690e+01	-2.321496369029901893e-04	-3.783920590277707330e-01
1.630730651853285235e+04	3.722494336331389064e+01	-2.331478098270840630e-04	-3.783800808205391442e-01
1.630732825766327915e+04	3.714295425486422886e+01	-2.341614497141853888e-04	-3.783681178634761277e-01
1.630734999679370594e+04	3.706023199811711066e+01	-2.351908672250514851e-04	-3.783561701295989343e-01
1.630737173592413092e+04	3.697677146053425901e+01	-2.362363676465854226e-04	-3.783442375919753298e-01
1.630739347505455771e+04	3.689256841309520496e+01	-2.372982519439703695e-04	-3.783323202237225402e-01
1.630741521418498451e+04	3.680761942013653965e+01	-2.383768179785890741e-04	-3.783204179980083071e-01
1.630743695331541130e+04	3.672192172085588879e+01	-2.394723618791598442e-04	-3.783085308880500541e-01
1.630745869244583628e+04	3.663547310424285541e+01	-2.405851795516364725e-04	-3.782966588671144437e-01
1.630748043157626307e+04	3.654827177927777626e+01	-2.417155683116710917e-04	-3.782848019085183755e-01
1.630750217070668987e+04	3.646031624229302537e+01	-2.428638286218473346e-04	-3.782729599856275993e-01
1.630752390983711666e+04	3.637160514342347284e+01	-2.440302659144670473e-04	-3.782611330718582687e-01
1.630754564896754346e+04	3.628213715407891726e+01	-2.452151924794598501e-04	-3.782493211406746658e-01
1.630756738809796843e+04	3.619191083735503156e+01	-2.464189293959624639e-04	-3.782375241655909770e-01
1.630758912722839523e+04	3.610092452325776691e+01	-2.476418084853413879e-04	-3.782257421201705161e-01
1.630761086635882202e+04	3.600917619055257290e+01	-2.488841742628826047e-04	-3.782139749780256688e-01
1.630763260548924882e+04	3.591666335696228884e+01	-2.501463858650836191e-04	-3.782022227128177816e-01
1.630765434461967379e+04	3.582338297933003446e+01	-2.514288189294553821e-04	-3.781904852982566068e-01
1.630767608375010059e+04	3.572933136523423769e+01	-2.527318674039729924e-04	-3.781787627081014680e-01
1.630769782288052738e+04	3.563450409739641600e+01	-2.540559452638205522e-04	-3.781670549161598172e-01
1.630771956201095418e+04	3.553889597205846940e+01	-2.554014881138401351e-04	-3.781553618962877339e-01
1.630774130114137915e+04	3.544250095232777653e+01	-2.567689546561221039e-04	-3.781436836223900921e-01
1.630776304027180595e+04	3.534531213729722054e+01	-2.581588280034529965e-04	-3.781320200684199495e-01
1.630778477940223274e+04	3.524732174754618796e+01	-2.595716168208530737e-04	-3.781203712083787138e-01
1.630780651853265954e+04	3.514852112741968426e+01	-2.610078562791740345e-04	-3.781087370163159211e-01
1.630782825766308451e+04	3.504890076426860901e+01	-2.624681088066613483e-04	-3.780971174663298462e-01
1.630784999679351131e+04	3.494845032461785195e+01	-2.639529646265086852e-04	-3.780855125325658928e-01
1.630787173592393810e+04	3.484715870701170104e+01	-2.654630420707148751e-04	-3.780739221892179258e-01
1.630789347505436490e+04	3.474501411107326732e+01	-2.669989876629459561e-04	-3.780623464105280496e-01
1.630791521418478987e+04	3.464200412210610835e+01	-2.685614759656100299e-04	-3.780507851707853306e-01
1.630793695331521667e+04	3.453811581036574552e+01	-2.701512091889340743e-04	-3.780392384443271303e-01
1.630795869244564346e+04	3.443333584393935354e+01	-2.717689165624353012e-04	-3.780277062055381054e-01
1.630798043157607026e+04	3.432765061399445727e+01	-2.734153534718092196e-04	-3.780161884288507634e-01
1.630800217070649524e+04	3.422104637099607771e+01	-2.750913003668545298e-04	-3.780046850887447407e-01
1.630802390983692203e+04	3.411350937034579545e+01	-2.767975614486150975e-04	-3.779931961597468582e-01
1.630804564896734882e+04	3.400502602577062561e+01	-2.785349631463842485e-04	-3.779817216164318983e-01
1.630806738809777562e+04	3.389558306868301685e+01	-2.803043523976039278e-04	-3.779702614334212174e-01
1.630808912722820060e+04	3.378516771164881760e+01	-2.821065947459315527e-04	-3.779588155853829123e-01
1.630811086635862739e+04	3.367376781403856256e+01	-2.839425722748512861e-04	-3.779473840470330970e-01
1.630813260548905419e+04	3.356137204789862949e+01	-2.858131813961354130e-04	-3.779359667931337929e-01
1.630815434461948098e+04	3.344797006206433565e+01	-2.877193305142225184e-04	-3.779245637984945394e-01
1.630817608374990778e+04	3.333355264254688421e+01	-2.896619375891205765e-04	-3.779131750379711163e-01
1.630819782288033275e+04	3.321811186725919640e+01	-2.916419276217974447e-04	-3.779018004864660440e-01
1.630821956201075955e+04	3.310164125320318362e+01	-2.936602300871419429e-04	-3.778904401189289719e-01
1.630824130114118634e+04	3.298413589432067283e+01	-2.957177763404835727e-04	-3.778790939103546798e-01
1.630826304027161314e+04	3.286559258831249508e+01	-2.978154970243219752e-04	-3.778677618357857426e-01
1.630828477940203811e+04	3.274600995085273780e+01	-2.999543195023613709e-04	-3.778564438703101991e-01
1.630830651853246491e+04	3.262538851576694299e+01	-3.021351653481294279e-04	-3.778451399890622731e-01
1.630832825766289170e+04	3.250373081990298374e+01	-3.043589479154227119e-04	-3.778338501672229288e-01
1.630834999679331850e+04	3.238104147159739910e+01	-3.066265700175364829e-04	-3.778225743800187053e-01
1.630837173592374347e+04	3.225732720182948299e+01	-3.089389217417076749e-04	-3.778113126027219382e-01
1.630839347505417027e+04	3.213259689735411939e+01	-3.112968784244312531e-04	-3.778000648106510928e-01
1.630841521418459706e+04	3.200686161531316287e+01	-3.137012988123167928e-04	-3.777888309791703758e-01
1.630843695331502386e+04	3.188013457903961978e+01	-3.161530234318878389e-04	-3.777776110836891799e-01
1.630845869244544883e+04	3.175243115498697932e+01	-3.186528731902665097e-04	-3.777664050996638045e-01
1.630848043157587563e+04	3.162376881093532077e+01	-3.212016482269543899e-04	-3.777552130025944033e-01
1.630850217070630242e+04	3.149416705584290455e+01	-3.238001270349888752e-04	-3.777440347680274813e-01
1.630852390983672922e+04	3.136364736192561153e+01	-3.264490658675748267e-04	-3.777328703715551184e-01
1.630854564896715419e+04	3.123223306975220126e+01	-3.291491984439060448e-04	-3.777217197888139699e-01
1.630856738809758099e+04	3.109994927734034675e+01	-3.319012359652954861e-04	-3.777105829954860994e-01
1.630858912722800778e+04	3.096682271442360346e+01	-3.347058674499257748e-04	-3.776994599672989783e-01
