# time(us)	tip(nm)	Fts(nN)	Xb(nm)
1.630437173592529507e+04	1.397373533820493208e+02	-1.694136226328890190e-05	-3.484939673031822727e-01
1.630439347505572005e+04	1.398932263382736778e+02	-1.690372071305351777e-05	-3.484802687097092733e-01
1.630441521418614684e+04	1.400467544526368329e+02	-1.686676607411684268e-05	-3.484665889408772865e-01
1.630443695331657364e+04	1.401978929980287489e+02	-1.683050293299061275e-05	-3.484529279629471898e-01
1.630445869244700043e+04	1.403465957017566552e+02	-1.679493625002796047e-05	-3.484392857422434209e-01
1.630448043157742541e+04	1.404928149996920297e+02	-1.676007129815881245e-05	-3.484256622451533114e-01
1.630450217070785220e+04	1.406365023042095856e+02	-1.672591359977384942e-05	-3.484120574381259772e-01
1.630452390983827900e+04	1.407776082830343398e+02	-1.669246886242647577e-05	-3.483984712876729284e-01
1.630454564896870579e+04	1.409160831459847145e+02	-1.665974291403040123e-05	-3.483849037603686805e-01
1.630456738809913077e+04	1.410518769365081937e+02	-1.662774163823096948e-05	-3.483713548228493662e-01
1.630458912722955756e+04	1.411849398248504883e+02	-1.659647091062037877e-05	-3.483578244418135128e-01
1.630461086635998436e+04	1.413152223996816303e+02	-1.656593653645319444e-05	-3.483443125840215426e-01
1.630463260549041115e+04	1.414426759550266866e+02	-1.653614419049486328e-05	-3.483308192162954398e-01
1.630465434462083795e+04	1.415672527694053997e+02	-1.650709935960816352e-05	-3.483173443055191942e-01
1.630467608375126292e+04	1.416889063741815562e+02	-1.647880728864678997e-05	-3.483038878186383025e-01
1.630469782288168972e+04	1.418075918082571718e+02	-1.645127293018353869e-05	-3.482904497226599339e-01
1.630471956201211651e+04	1.419232658564122289e+02	-1.642450089855434464e-05	-3.482770299846522644e-01
1.630474130114254331e+04	1.420358872687894234e+02	-1.639849542864795027e-05	-3.482636285717448099e-01
1.630476304027296828e+04	1.421454169592521737e+02	-1.637326033981537660e-05	-3.482502454511286483e-01
1.630478477940339508e+04	1.422518181806024700e+02	-1.634879900521384253e-05	-3.482368805900556419e-01
1.630480651853382187e+04	1.423550566749209452e+02	-1.632511432683906265e-05	-3.482235339558382714e-01
1.630482825766424867e+04	1.424551007975960317e+02	-1.630220871643457133e-05	-3.482102055158500242e-01
1.630484999679467364e+04	1.425519216139242644e+02	-1.628008408240234981e-05	-3.481968952375254500e-01
1.630487173592510044e+04	1.426454929674934533e+02	-1.625874182277224942e-05	-3.481836030883589395e-01
1.630489347505552723e+04	1.427357915199020226e+02	-1.623818282422209646e-05	-3.481703290359059455e-01
1.630491521418595403e+04	1.428227967617084460e+02	-1.621840746707424804e-05	-3.481570730477822617e-01
1.630493695331637900e+04	1.429064909948542095e+02	-1.619941563613043782e-05	-3.481438350916634672e-01
1.630495869244680580e+04	1.429868592871381168e+02	-1.618120673714428312e-05	-3.481306151352855371e-01
1.630498043157723259e+04	1.430638893996590468e+02	-1.616377971867128595e-05	-3.481174131464442878e-01
1.630500217070765939e+04	1.431375716884633391e+02	-1.614713309897884266e-05	-3.481042290929962091e-01
1.630502390983808436e+04	1.432078989819372623e+02	-1.613126499764663428e-05	-3.480910629428563552e-01
1.630504564896851116e+04	1.432748664357745270e+02	-1.611617317143791619e-05	-3.480779146639999544e-01
1.630506738809893795e+04	1.433384713676095998e+02	-1.610185505397937280e-05	-3.480647842244625201e-01
1.630508912722936475e+04	1.433987130736458369e+02	-1.608830779874706728e-05	-3.480516715923376303e-01
1.630511086635978972e+04	1.434555926298168345e+02	-1.607552832482324266e-05	-3.480385767357794813e-01
1.630513260549021652e+04	1.435091126801943062e+02	-1.606351336486085675e-05	-3.480254996230009445e-01
1.630515434462064331e+04	1.435592772154998613e+02	-1.605225951467159794e-05	-3.480124402222738444e-01
1.630517608375107011e+04	1.436060913446876839e+02	-1.604176328383753028e-05	-3.479993985019289027e-01
1.630519782288149690e+04	1.436495610626321877e+02	-1.603202114673875359e-05	-3.479863744303569595e-01
1.630521956201192188e+04	1.436896930169938287e+02	-1.602302959338712692e-05	-3.479733679760058096e-01
1.630524130114234868e+04	1.437264942773261680e+02	-1.601478517946118920e-05	-3.479603791073831442e-01
1.630526304027277547e+04	1.437599721094516951e+02	-1.600728457494907266e-05	-3.479474077930546638e-01
1.630528477940320226e+04	1.437901337580492793e+02	-1.600052461082414492e-05	-3.479344540016451326e-01
1.630530651853362724e+04	1.438169862402827448e+02	-1.599450232320309985e-05	-3.479215177018371019e-01
1.630532825766405404e+04	1.438405361531526978e+02	-1.598921499446624264e-05	-3.479085988623712988e-01
1.630534999679448083e+04	1.438607894970647010e+02	-1.598466019085696381e-05	-3.478956974520472367e-01
1.630537173592490763e+04	1.438777515178982753e+02	-1.598083579611891855e-05	-3.478828134397218275e-01
1.630539347505533260e+04	1.438914265696161294e+02	-1.597774004077666813e-05	-3.478699467943099366e-01
1.630541521418575940e+04	1.439018179991886655e+02	-1.597537152671682007e-05	-3.478570974847844388e-01
1.630543695331618619e+04	1.439089280553176309e+02	-1.597372924678180426e-05	-3.478442654801760514e-01
1.630545869244661299e+04	1.439127578221367685e+02	-1.597281259914797607e-05	-3.478314507495727237e-01
1.630548043157703796e+04	1.439133071787477434e+02	-1.597262139631956465e-05	-3.478186532621200255e-01
1.630550217070746476e+04	1.439105747851155002e+02	-1.597315586863425765e-05	-3.478058729870207588e-01
1.630552390983789155e+04	1.439045580945094400e+02	-1.597441666224002922e-05	-3.477931098935350684e-01
1.630554564896831835e+04	1.438952533923388160e+02	-1.597640483156744293e-05	-3.477803639509807199e-01
1.630556738809874332e+04	1.438826558608885762e+02	-1.597912182638638870e-05	-3.477676351287317669e-01
1.630558912722917012e+04	1.438667596691323638e+02	-1.598256947359959408e-05	-3.477549233962194952e-01
1.630561086635959691e+04	1.438475580864770791e+02	-1.598674995398639953e-05	-3.477422287229323117e-01
1.630563260549002371e+04	1.438250436189832726e+02	-1.599166577416997947e-05	-3.477295510784151888e-01
1.630565434462044868e+04	1.437992081663180954e+02	-1.599731973413698633e-05	-3.477168904322689436e-01
1.630567608375087548e+04	1.437700431974279809e+02	-1.600371489069049130e-05	-3.477042467541521797e-01
1.630569782288130227e+04	1.437375399426744025e+02	-1.601085451726514202e-05	-3.476916200137789570e-01
1.630571956201172907e+04	1.437016895999591668e+02	-1.601874206057671100e-05	-3.476790101809206224e-01
1.630574130114215404e+04	1.436624835521829482e+02	-1.602738109461521982e-05	-3.476664172254038676e-01
1.630576304027258084e+04	1.436199135932255331e+02	-1.603677527252277138e-05	-3.476538411171113396e-01
1.630578477940300763e+04	1.435739721595184051e+02	-1.604692827692332110e-05	-3.476412818259820847e-01
1.630580651853343443e+04	1.435246525641986182e+02	-1.605784376929105203e-05	-3.476287393220114375e-01
1.630582825766386122e+04	1.434719492307887379e+02	-1.606952533895626405e-05	-3.476162135752496884e-01
1.630584999679428620e+04	1.434158579233380806e+02	-1.608197645235465953e-05	-3.476037045558031391e-01
1.630587173592471299e+04	1.433563759699930245e+02	-1.609520040312546459e-05	-3.475912122338341015e-01
1.630589347505513979e+04	1.432935024770312396e+02	-1.610920026365620793e-05	-3.475787365795595663e-01
1.630591521418556658e+04	1.432272385304981981e+02	-1.612397883865889148e-05	-3.475662775632525903e-01
1.630593695331599156e+04	1.431575873827242731e+02	-1.613953862134285907e-05	-3.475538351552403538e-01
1.630595869244641835e+04	1.430845546211754993e+02	-1.615588175272207998e-05	-3.475414093259068804e-01
1.630598043157684515e+04	1.430081483172933190e+02	-1.617300998456421690e-05	-3.475290000456900397e-01
1.630600217070727194e+04	1.429283791532149337e+02	-1.619092464645025995e-05	-3.475166072850828791e-01
1.630602390983769692e+04	1.428452605245242069e+02	-1.620962661737132662e-05	-3.475042310146336244e-01
1.630604564896812371e+04	1.427588086174656041e+02	-1.622911630224180697e-05	-3.474918712049443470e-01
1.630606738809855051e+04	1.426690424593585647e+02	-1.624939361365653718e-05	-3.474795278266732956e-01
1.630608912722897730e+04	1.425759839412649228e+02	-1.627045795916401774e-05	-3.474672008505318432e-01
1.630611086635940228e+04	1.424796578122958692e+02	-1.629230823426948763e-05	-3.474548902472862077e-01
1.630613260548982907e+04	1.423800916452798049e+02	-1.631494282132051353e-05	-3.474425959877573411e-01
1.630615434462025587e+04	1.422773157738566567e+02	-1.633835959436462894e-05	-3.474303180428198745e-01
1.630617608375068266e+04	1.421713632014069049e+02	-1.636255593000391907e-05	-3.474180563834030067e-01
1.630619782288110764e+04	1.420622694825584347e+02	-1.638752872420653101e-05	-3.474058109804897820e-01
1.630621956201153444e+04	1.419500725783447876e+02	-1.641327441496950436e-05	-3.473935818051171465e-01
1.630624130114196123e+04	1.418348126864049732e+02	-1.643978901066290267e-05	-3.473813688283754475e-01
1.630626304027238803e+04	1.417165320479136597e+02	-1.646706812382163037e-05	-3.473691720214097112e-01
1.630628477940281300e+04	1.415952747332102319e+02	-1.649510701009003925e-05	-3.473569913554179767e-01
1.630630651853323980e+04	1.414710864083527895e+02	-1.652390061196549144e-05	-3.473448268016519069e-01
1.630632825766366659e+04	1.413440140850497642e+02	-1.655344360693174533e-05	-3.473326783314165112e-01
1.630634999679409339e+04	1.412141058566263609e+02	-1.658373045952109360e-05	-3.473205459160699782e-01
1.630637173592452018e+04	1.410814106228467040e+02	-1.661475547679740994e-05	-3.473084295270240651e-01
1.630639347505494516e+04	1.409459778065493651e+02	-1.664651286671049851e-05	-3.472963291357439863e-01
1.630641521418537195e+04	1.408078570651530299e+02	-1.667899679873557900e-05	-3.472842447137466926e-01
1.630643695331579875e+04	1.406670980001495082e+02	-1.671220146618202979e-05	-3.472721762326034800e-01
1.630645869244622554e+04	1.405237498677264796e+02	-1.674612114953206884e-05	-3.472601236639376587e-01
1.630648043157665052e+04	1.403778612936517050e+02	-1.678075028015356578e-05	-3.472480869794253855e-01
1.630650217070707731e+04	1.402294799954950406e+02	-1.681608350372186075e-05	-3.472360661507955526e-01
1.630652390983750411e+04	1.400786525151805222e+02	-1.685211574268503590e-05	-3.472240611498296214e-01
1.630654564896793090e+04	1.399254239647364955e+02	-1.688884225711143847e-05	-3.472120719483614559e-01
1.630656738809835588e+04	1.397698377879515590e+02	-1.692625870327404042e-05	-3.472000985182772115e-01
1.630658912722878267e+04	1.396119355404573810e+02	-1.696436118934634106e-05	-3.471881408315149464e-01
1.630661086635920947e+04	1.394517566905353760e+02	-1.700314632761430462e-05	-3.471761988600655102e-01
1.630663260548963626e+04	1.392893384426977548e+02	-1.704261128264550449e-05	-3.471642725759717107e-01
1.630665434462006124e+04	1.391247155858217752e+02	-1.708275381489929203e-05	-3.471523619513275927e-01
1.630667608375048803e+04	1.389579203673206962e+02	-1.712357231931249492e-05	-3.471404669582797142e-01
1.630669782288091483e+04	1.387889823945251919e+02	-1.716506585845080260e-05	-3.471285875690260925e-01
1.630671956201134162e+04	1.386179285641245826e+02	-1.720723418987727500e-05	-3.471167237558163143e-01
1.630674130114176660e+04	1.384447830201812621e+02	-1.725007778745588522e-05	-3.471048754909519807e-01
1.630676304027219339e+04	1.382695671408928035e+02	-1.729359785637765362e-05	-3.470930427467857626e-01
1.630678477940262019e+04	1.380922995539345379e+02	-1.733779634177038537e-05	-3.470812254957214571e-01
1.630680651853304698e+04	1.379129961798755915e+02	-1.738267593082823322e-05	-3.470694237102148749e-01
1.630682825766347196e+04	1.377316703028294853e+02	-1.742824004847407912e-05	-3.470576373627722866e-01
1.630684999679389875e+04	1.375483326671796647e+02	-1.747449284664521446e-05	-3.470458664259513659e-01
1.630687173592432555e+04	1.373629915989108099e+02	-1.752143918736887991e-05	-3.470341108723608570e-01
1.630689347505475234e+04	1.371756531497935896e+02	-1.756908461986963121e-05	-3.470223706746599635e-01
1.630691521418517732e+04	1.369863212623976949e+02	-1.761743535202314645e-05	-3.470106458055590704e-01
1.630693695331560411e+04	1.367949979536710998e+02	-1.766649821654082085e-05	-3.469989362378190223e-01
1.630695869244603091e+04	1.366016835146090784e+02	-1.771628063233396491e-05	-3.469872419442516231e-01
1.630698043157645770e+04	1.364063767233537305e+02	-1.776679056156743144e-05	-3.469755628977185813e-01
1.630700217070688450e+04	1.362090750689147853e+02	-1.781803646296642292e-05	-3.469638990711326199e-01
1.630702390983730947e+04	1.360097749825885671e+02	-1.787002724198903298e-05	-3.469522504374562555e-01
1.630704564896773627e+04	1.358084720740712044e+02	-1.792277219851749976e-05	-3.469406169697025755e-01
1.630706738809816306e+04	1.356051613692211504e+02	-1.797628097275583308e-05	-3.469289986409347937e-01
1.630708912722858986e+04	1.353998375464221056e+02	-1.803056349004613970e-05	-3.469173954242658064e-01
1.630711086635901484e+04	1.351924951685286374e+02	-1.808562990533481567e-05	-3.469058072928586922e-01
1.630713260548944163e+04	1.349831289074483038e+02	-1.814149054802800110e-05	-3.468942342199263784e-01
1.630715434461986843e+04	1.347717337585193036e+02	-1.819815586797686170e-05	-3.468826761787315860e-01
1.630717608375029522e+04	1.345583052419827936e+02	-1.825563638332547211e-05	-3.468711331425865518e-01
1.630719782288072020e+04	1.343428395890251750e+02	-1.831394263093725377e-05	-3.468596050848533063e-01
1.630721956201114699e+04	1.341253339100674111e+02	-1.837308512009149197e-05	-3.468480919789428407e-01
1.630724130114157379e+04	1.339057863432147713e+02	-1.843307429010837138e-05	-3.468365937983161618e-01
1.630726304027200058e+04	1.336841961810369241e+02	-1.849392047252039313e-05	-3.468251105164832926e-01
1.630728477940242556e+04	1.334605639741308778e+02	-1.855563385835982347e-05	-3.468136421070033282e-01
1.630730651853285235e+04	1.332348916102169483e+02	-1.861822447107734622e-05	-3.468021885434844354e-01
1.630732825766327915e+04	1.330071823678360659e+02	-1.868170214554526460e-05	-3.467907497995837973e-01
1.630734999679370594e+04	1.327774409440399666e+02	-1.874607651353214994e-05	-3.467793258490080022e-01
1.630737173592413092e+04	1.325456734558010510e+02	-1.881135699596358634e-05	-3.467679166655117662e-01
1.630739347505455771e+04	1.323118874152050637e+02	-1.887755280220767469e-05	-3.467565222228988220e-01
1.630741521418498451e+04	1.320760916788270833e+02	-1.894467293654333536e-05	-3.467451424950221406e-01
1.630743695331541130e+04	1.318382963720169698e+02	-1.901272621188895726e-05	-3.467337774557820995e-01
1.630745869244583628e+04	1.315985127891484865e+02	-1.908172127078268222e-05	-3.467224270791285368e-01
1.630748043157626307e+04	1.313567532711898309e+02	-1.915166661352192716e-05	-3.467110913390586968e-01
1.630750217070668987e+04	1.311130310622465629e+02	-1.922257063328435158e-05	-3.466997702096190626e-01
1.630752390983711666e+04	1.308673601469998005e+02	-1.929444165796833410e-05	-3.466884636649036899e-01
1.630754564896754346e+04	1.306197550712066970e+02	-1.936728799840937095e-05	-3.466771716790550406e-01
1.630756738809796843e+04	1.303702307476545457e+02	-1.944111800254948294e-05	-3.466658942262634269e-01
1.630758912722839523e+04	1.301188022501473256e+02	-1.951594011506106063e-05	-3.466546312807671781e-01
1.630761086635882202e+04	1.298654845982640893e+02	-1.959176294185666997e-05	-3.466433828168524189e-01
1.630763260548924882e+04	1.296102925357542404e+02	-1.966859531885062457e-05	-3.466321488088527913e-01
1.630765434461967379e+04	1.293532403055210693e+02	-1.974644638428075592e-05	-3.466209292311500656e-01
1.630767608375010059e+04	1.290943414242022698e+02	-1.982532565384643615e-05	-3.466097240581731964e-01
1.630769782288052738e+04	1.288336084593708222e+02	-1.990524309787626445e-05	-3.465985332643987116e-01
1.630771956201095418e+04	1.285710528123558447e+02	-1.998620921970442548e-05	-3.465873568243501013e-01
1.630774130114137915e+04	1.283066845096282691e+02	-2.006823513440892057e-05	-3.465761947125993170e-01
1.630776304027180595e+04	1.280405120055987993e+02	-2.015133264704933462e-05	-3.465650469037639958e-01
1.630778477940223274e+04	1.277725419995466183e+02	-2.023551432953605523e-05	-3.465539133725101806e-01
1.630780651853265954e+04	1.275027792692330451e+02	-2.032079359526681799e-05	-3.465427940935501550e-01
1.630782825766308451e+04	1.272312265235596698e+02	-2.040718477068219320e-05	-3.465316890416438866e-01
1.630784999679351131e+04	1.269578842764052382e+02	-2.049470316291519017e-05	-3.465205981915969180e-01
1.630787173592393810e+04	1.266827507435234992e+02	-2.058336512274675065e-05	-3.465095215182627530e-01
1.630789347505436490e+04	1.264058217641116642e+02	-2.067318810212307045e-05	-3.464984589965411921e-01
1.630791521418478987e+04	1.261270907483615815e+02	-2.076419070554531878e-05	-3.464874106013784982e-01
1.630793695331521667e+04	1.258465486519966561e+02	-2.085639273470549969e-05	-3.464763763077676750e-01
1.630795869244564346e+04	1.255641839784719167e+02	-2.094981522581366938e-05	-3.464653560907479113e-01
1.630798043157607026e+04	1.252799828091816750e+02	-2.104448047914128666e-05	-3.464543499254049697e-01
1.630800217070649524e+04	1.249939288616827184e+02	-2.114041208038914372e-05	-3.464433577868700764e-01
1.630802390983692203e+04	1.247060035756014713e+02	-2.123763491358154199e-05	-3.464323796503221975e-01
1.630804564896734882e+04	1.244161862255593007e+02	-2.133617516528148045e-05	-3.464214154909845411e-01
1.630806738809777562e+04	1.241244540601227868e+02	-2.143606032002194969e-05	-3.464104652841277776e-01
1.630808912722820060e+04	1.238307824654704064e+02	-2.153731914694866274e-05	-3.463995290050674858e-01
1.630811086635862739e+04	1.235351451521668764e+02	-2.163998167777104545e-05	-3.463886066291654853e-01
1.630813260548905419e+04	1.232375143631552561e+02	-2.174407917622067131e-05	-3.463776981318295034e-01
1.630815434461948098e+04	1.229378611008181821e+02	-2.184964409931585856e-05	-3.463668034885121760e-01
1.630817608374990778e+04	1.226361553707278347e+02	-2.195671005082896660e-05	-3.463559226747125463e-01
1.630819782288033275e+04	1.223323664394980739e+02	-2.206531172744636622e-05	-3.463450556659747326e-01
1.630821956201075955e+04	1.220264631039808592e+02	-2.217548485820037288e-05	-3.463342024378880391e-01
1.630824130114118634e+04	1.217184139689073703e+02	-2.228726613783504185e-05	-3.463233629660874557e-01
1.630826304027161314e+04	1.214081877299702086e+02	-2.240069315484400400e-05	-3.463125372262528257e-01
1.630828477940203811e+04	1.210957534592720606e+02	-2.251580431498714134e-05	-3.463017251941097885e-01
1.630830651853246491e+04	1.207810808900362218e+02	-2.263263876115257969e-05	-3.462909268454278933e-01
1.630832825766289170e+04	1.204641406974769922e+02	-2.275123629048176872e-05	-3.462801421560225967e-01
1.630834999679331850e+04	1.201449047727725770e+02	-2.287163726971617577e-05	-3.462693711017539311e-01
1.630837173592374347e+04	1.198233464871603502e+02	-2.299388254975582560e-05	-3.462586136585268370e-01
1.630839347505417027e+04	1.194994409432910487e+02	-2.311801338043980686e-05	-3.462478698022906642e-01
1.630841521418459706e+04	1.191731652111249105e+02	-2.324407132656955882e-05	-3.462371395090396708e-01
1.630843695331502386e+04	1.188444985458393575e+02	-2.337209818619415965e-05	-3.462264227548124684e-01
1.630845869244544883e+04	1.185134225854243510e+02	-2.350213591216563272e-05	-3.462157195156921330e-01
1.630848043157587563e+04	1.181799215258863143e+02	-2.363422653794958051e-05	-3.462050297678061495e-01
1.630850217070630242e+04	1.178439822722437640e+02	-2.376841210864305854e-05	-3.461943534873268002e-01
1.630852390983672922e+04	1.175055945637852517e+02	-2.390473461810852527e-05	-3.461836906504696110e-01
1.630854564896715419e+04	1.171647510723638135e+02	-2.404323595307919495e-05	-3.461730412334950158e-01
1.630856738809758099e+04	1.168214474728230954e+02	-2.418395784502768814e-05	-3.461624052127069140e-01
1.630858912722800778e+04	1.164756824849778951e+02	-2.432694183051822861e-05	-3.461517825644535029e-01
