# time(us)	tip(nm)	Fts(nN)	Xb(nm)
1.630437173592529507e+04	1.926285585137450767e+02	-8.936635127485488119e-06	-3.311350586332965640e-01
1.630439347505572005e+04	1.929121508151610556e+02	-8.910420690879191128e-06	-3.311215992959463117e-01
1.630441521418614684e+04	1.931926745650512771e+02	-8.884603151829718453e-06	-3.311081586236443997e-01
1.630443695331657364e+04	1.934701543207526697e+02	-8.859175922040130231e-06	-3.310947365828887934e-01
1.630445869244700043e+04	1.937446136845874491e+02	-8.834132620544973377e-06	-3.310813331402398529e-01
1.630448043157742541e+04	1.940160747970222417e+02	-8.809467114692889921e-06	-3.310679482623205550e-01
1.630450217070785220e+04	1.942845578399834210e+02	-8.785173559309083683e-06	-3.310545819158154379e-01
1.630452390983827900e+04	1.945500805565520466e+02	-8.761246433560547191e-06	-3.310412340674715459e-01
1.630454564896870579e+04	1.948126577930721339e+02	-8.737680575077150886e-06	-3.310279046840972073e-01
1.630456738809913077e+04	1.950723010694484856e+02	-8.714471210916184421e-06	-3.310145937325632004e-01
1.630458912722955756e+04	1.953290181830747940e+02	-8.691613984998102800e-06	-3.310013011798014215e-01
1.630461086635998436e+04	1.955828128514366426e+02	-8.669104981684723542e-06	-3.309880269928056618e-01
1.630463260549041115e+04	1.958336843979732009e+02	-8.646940745218707354e-06	-3.309747711386308300e-01
1.630465434462083795e+04	1.960816274852640504e+02	-8.625118294794042873e-06	-3.309615335843933415e-01
1.630467608375126292e+04	1.963266318990428942e+02	-8.603635135079999046e-06	-3.309483142972707848e-01
1.630469782288168972e+04	1.965686823859276728e+02	-8.582489262076277648e-06	-3.309351132445018107e-01
1.630471956201211651e+04	1.968077585471141617e+02	-8.561679164233099157e-06	-3.309219303933859657e-01
1.630474130114254331e+04	1.970438347896064215e+02	-8.541203818826369304e-06	-3.309087657112836922e-01
1.630476304027296828e+04	1.972768803358640071e+02	-8.521062683634416542e-06	-3.308956191656161616e-01
1.630478477940339508e+04	1.975068592920450214e+02	-8.501255684018064671e-06	-3.308824907238651081e-01
1.630480651853382187e+04	1.977337307743161716e+02	-8.481783195559333940e-06	-3.308693803535728839e-01
1.630482825766424867e+04	1.979574490920018377e+02	-8.462646022465582202e-06	-3.308562880223422376e-01
1.630484999679467364e+04	1.981779639856600568e+02	-8.443845371993870231e-06	-3.308432136978360361e-01
1.630487173592510044e+04	1.983952209175104997e+02	-8.425382825195600766e-06	-3.308301573477775426e-01
1.630489347505552723e+04	1.986091614110083015e+02	-8.407260304322124891e-06	-3.308171189399498058e-01
1.630491521418595403e+04	1.988197234357671448e+02	-8.389480037268231831e-06	-3.308040984421961039e-01
1.630493695331637900e+04	1.990268418334866851e+02	-8.372044519462202035e-06	-3.307910958224192233e-01
1.630495869244680580e+04	1.992304487800474249e+02	-8.354956473637193686e-06	-3.307781110485820131e-01
1.630498043157723259e+04	1.994304742785002418e+02	-8.338218807939703635e-06	-3.307651440887066085e-01
1.630500217070765939e+04	1.996268466773082366e+02	-8.321834572846014113e-06	-3.307521949108750414e-01
1.630502390983808436e+04	1.998194932078945669e+02	-8.305806917367345224e-06	-3.307392634832281852e-01
1.630504564896851116e+04	2.000083405353196895e+02	-8.290139045028133049e-06	-3.307263497739664215e-01
1.630506738809893795e+04	2.001933153157567062e+02	-8.274834170100399690e-06	-3.307134537513496952e-01
1.630508912722936475e+04	2.003743447543542402e+02	-8.259895474569661626e-06	-3.307005753836962381e-01
1.630511086635978972e+04	2.005513571570752163e+02	-8.245326066295618700e-06	-3.306877146393838451e-01
1.630513260549021652e+04	2.007242824701760355e+02	-8.231128938813022457e-06	-3.306748714868491534e-01
1.630515434462064331e+04	2.008930528011455579e+02	-8.217306933195813403e-06	-3.306620458945869201e-01
1.630517608375107011e+04	2.010576029151499426e+02	-8.203862702380918277e-06	-3.306492378311509106e-01
1.630519782288149690e+04	2.012178707013304972e+02	-8.190798678316998764e-06	-3.306364472651533992e-01
1.630521956201192188e+04	2.013737976036688337e+02	-8.178117042269238192e-06	-3.306236741652652245e-01
1.630524130114234868e+04	2.015253290115698803e+02	-8.165819698573217593e-06	-3.306109185002148454e-01
1.630526304027277547e+04	2.016724146057983376e+02	-8.153908252090635755e-06	-3.305981802387896740e-01
1.630528477940320226e+04	2.018150086559546139e+02	-8.142383989576769729e-06	-3.305854593498347427e-01
1.630530651853362724e+04	2.019530702662599140e+02	-8.131247865124913279e-06	-3.305727558022529267e-01
1.630532825766405404e+04	2.020865635670510017e+02	-8.120500489807360448e-06	-3.305600695650053322e-01
1.630534999679448083e+04	2.022154578500441744e+02	-8.110142125585342006e-06	-3.305474006071106863e-01
1.630537173592490763e+04	2.023397276461092247e+02	-8.100172683513422327e-06	-3.305347488976450587e-01
1.630539347505533260e+04	2.024593527449913495e+02	-8.090591726216708233e-06	-3.305221144057423621e-01
1.630541521418575940e+04	2.025743181571221214e+02	-8.081398474572653147e-06	-3.305094971005937410e-01
1.630543695331618619e+04	2.026846140183603211e+02	-8.072591818483789832e-06	-3.304968969514478494e-01
1.630545869244661299e+04	2.027902354391927418e+02	-8.064170331583716520e-06	-3.304843139276101849e-01
1.630548043157703796e+04	2.028911823005955455e+02	-8.056132289676248620e-06	-3.304717479984436435e-01
1.630550217070746476e+04	2.029874589993991094e+02	-8.048475692668125632e-06	-3.304591991333680756e-01
1.630552390983789155e+04	2.030790741466057057e+02	-8.041198289717995333e-06	-3.304466673018598422e-01
1.630554564896831835e+04	2.031660402226735584e+02	-8.034297607290598998e-06	-3.304341524734527580e-01
1.630556738809874332e+04	2.032483731942965619e+02	-8.027770979773937713e-06	-3.304216546177365377e-01
1.630558912722917012e+04	2.033260920976655370e+02	-8.021615582290384468e-06	-3.304091737043581278e-01
1.630561086635959691e+04	2.033992185935956627e+02	-8.015828465309335376e-06	-3.303967097030204858e-01
1.630563260549002371e+04	2.034677765002356580e+02	-8.010406590650257002e-06	-3.303842625834828017e-01
1.630565434462044868e+04	2.035317913093320499e+02	-8.005346868450612642e-06	-3.303718323155611092e-01
1.630567608375087548e+04	2.035912896922128539e+02	-8.000646194663202832e-06	-3.303594188691271194e-01
1.630569782288130227e+04	2.036462990017644188e+02	-7.996301488642559505e-06	-3.303470222141083878e-01
1.630571956201172907e+04	2.036968467767077300e+02	-7.992309730379965478e-06	-3.303346423204890359e-01
1.630574130114215404e+04	2.037429602544411864e+02	-7.988667996951239820e-06	-3.303222791583083628e-01
1.630576304027258084e+04	2.037846658985937722e+02	-7.985373497751207814e-06	-3.303099326976617345e-01
1.630578477940300763e+04	2.038219889472384523e+02	-7.982423608103260190e-06	-3.302976029087000831e-01
1.630580651853343443e+04	2.038549529874477173e+02	-7.979815900851328992e-06	-3.302852897616297412e-01
1.630582825766386122e+04	2.038835795615349582e+02	-7.977548175565590382e-06	-3.302729932267126078e-01
1.630584999679428620e+04	2.039078878099226984e+02	-7.975618485020670524e-06	-3.302607132742655938e-01
1.630587173592471299e+04	2.039278941551128526e+02	-7.974025158637544977e-06	-3.302484498746610653e-01
1.630589347505513979e+04	2.039436120307200042e+02	-7.972766822615258748e-06	-3.302362029983265113e-01
1.630591521418556658e+04	2.039550516589583822e+02	-7.971842416517647433e-06	-3.302239726157442101e-01
1.630593695331599156e+04	2.039622198793642838e+02	-7.971251206121664901e-06	-3.302117586974513963e-01
1.630595869244641835e+04	2.039651200308983334e+02	-7.970992792377585800e-06	-3.301995612140399827e-01
1.630598043157684515e+04	2.039637518888978889e+02	-7.971067116376985930e-06	-3.301873801361568939e-01
1.630600217070727194e+04	2.039581116576677289e+02	-7.971474460271144494e-06	-3.301752154345033996e-01
1.630602390983769692e+04	2.039481920187982666e+02	-7.972215444130113787e-06	-3.301630670798350042e-01
1.630604564896812371e+04	2.039339822346080098e+02	-7.973291018779942634e-06	-3.301509350429618350e-01
1.630606738809855051e+04	2.039154683054140946e+02	-7.974702454702892366e-06	-3.301388192947488087e-01
1.630608912722897730e+04	2.038926331786625497e+02	-7.976451327131523817e-06	-3.301267198061137997e-01
1.630611086635940228e+04	2.038654570073029788e+02	-7.978539497511886100e-06	-3.301146365480300271e-01
1.630613260548982907e+04	2.038339174541737009e+02	-7.980969091553406555e-06	-3.301025694915236675e-01
1.630615434462025587e+04	2.037979900385873862e+02	-7.983742474122952783e-06	-3.300905186076754094e-01
1.630617608375068266e+04	2.037576485207765984e+02	-7.986862221277226043e-06	-3.300784838676193989e-01
1.630619782288110764e+04	2.037128653193830701e+02	-7.990331089760657591e-06	-3.300664652425434054e-01
1.630621956201153444e+04	2.036636119567560854e+02	-7.994151984325630742e-06	-3.300544627036891554e-01
1.630624130114196123e+04	2.036098595264710127e+02	-7.998327923256994776e-06	-3.300424762223512776e-01
1.630626304027238803e+04	2.035515791771969134e+02	-8.002862002503501033e-06	-3.300305057698783018e-01
1.630628477940281300e+04	2.034887426068264062e+02	-8.007757358835284936e-06	-3.300185513176714380e-01
1.630630651853323980e+04	2.034213225606445121e+02	-8.013017132457668075e-06	-3.300066128371857976e-01
1.630632825766366659e+04	2.033492933272516154e+02	-8.018644429518361182e-06	-3.299946902999286169e-01
1.630634999679409339e+04	2.032726312259697750e+02	-8.024642284946761624e-06	-3.299827836774610335e-01
1.630637173592452018e+04	2.031913150795554657e+02	-8.031013626060901607e-06	-3.299708929413964209e-01
1.630639347505494516e+04	2.031053266662078158e+02	-8.037761237369763165e-06	-3.299590180634014436e-01
1.630641521418537195e+04	2.030146511451056881e+02	-8.044887726985943378e-06	-3.299471590151946132e-01
1.630643695331579875e+04	2.029192774500173471e+02	-8.052395495046727887e-06	-3.299353157685478433e-01
1.630645869244622554e+04	2.028191986459068232e+02	-8.060286704520066989e-06	-3.299234882952851722e-01
1.630648043157665052e+04	2.027144122439040359e+02	-8.068563254746671435e-06	-3.299116765672827634e-01
1.630650217070707731e+04	2.026049204705027762e+02	-8.077226758040085210e-06	-3.298998805564694603e-01
1.630652390983750411e+04	2.024907304874004979e+02	-8.086278519634164765e-06	-3.298881002348262870e-01
1.630654564896793090e+04	2.023718545589890709e+02	-8.095719521231252943e-06	-3.298763355743861148e-01
1.630656738809835588e+04	2.022483101651363882e+02	-8.105550408366041525e-06	-3.298645865472336625e-01
1.630658912722878267e+04	2.021201200575553969e+02	-8.115771481759045353e-06	-3.298528531255060514e-01
1.630661086635920947e+04	2.019873122587433159e+02	-8.126382692790635936e-06	-3.298411352813915287e-01
1.630663260548963626e+04	2.018499200031622252e+02	-8.137383643182133543e-06	-3.298294329871304664e-01
1.630665434462006124e+04	2.017079816210355432e+02	-8.148773588924705156e-06	-3.298177462150149730e-01
1.630667608375048803e+04	2.015615403658244986e+02	-8.160551448450474474e-06	-3.298060749373880052e-01
1.630669782288091483e+04	2.014106441871331583e+02	-8.172715814993697223e-06	-3.297944191266445335e-01
1.630671956201134162e+04	2.012553454514504949e+02	-8.185264973043290267e-06	-3.297827787552307655e-01
1.630674130114176660e+04	2.010957006137674909e+02	-8.198196918742444456e-06	-3.297711537956437011e-01
1.630676304027219339e+04	2.009317698437052400e+02	-8.211509384046437963e-06	-3.297595442204317440e-01
1.630678477940262019e+04	2.007636166103386302e+02	-8.225199864406717239e-06	-3.297479500021944232e-01
1.630680651853304698e+04	2.005913072304010143e+02	-8.239265649708653439e-06	-3.297363711135819497e-01
1.630682825766347196e+04	2.004149103849989046e+02	-8.253703858151889607e-06	-3.297248075272954937e-01
1.630684999679389875e+04	2.002344966103469517e+02	-8.268511472727118296e-06	-3.297132592160866849e-01
1.630687173592432555e+04	2.000501377683478665e+02	-8.283685379911031788e-06	-3.297017261527581122e-01
1.630689347505475234e+04	1.998619065030870559e+02	-8.299222410173353622e-06	-3.296902083101630465e-01
1.630691521418517732e+04	1.996698756894787152e+02	-8.315119379866046625e-06	-3.296787056612047184e-01
1.630693695331560411e+04	1.994741178803998025e+02	-8.331373134045480300e-06	-3.296672181788369294e-01
1.630695869244603091e+04	1.992747047586626366e+02	-8.347980589764040816e-06	-3.296557458360637183e-01
1.630698043157645770e+04	1.990717066001190574e+02	-8.364938779358473142e-06	-3.296442886059394728e-01
1.630700217070688450e+04	1.988651917540524607e+02	-8.382244893258485746e-06	-3.296328464615681519e-01
1.630702390983730947e+04	1.986552261468080474e+02	-8.399896321840366300e-06	-3.296214193761043965e-01
1.630704564896773627e+04	1.984418728143246824e+02	-8.417890695858020798e-06	-3.296100073227522520e-01
1.630706738809816306e+04	1.982251914688852708e+02	-8.436225924996216866e-06	-3.295986102747652247e-01
1.630708912722858986e+04	1.980052381049860628e+02	-8.454900234109246856e-06	-3.295872282054474467e-01
1.630711086635901484e+04	1.977820646487523106e+02	-8.473912196731780635e-06	-3.295758610881520667e-01
1.630713260548944163e+04	1.975557186548001880e+02	-8.493260765477627839e-06	-3.295645088962816938e-01
1.630715434461986843e+04	1.973262430538705132e+02	-8.512945298975619374e-06	-3.295531716032882863e-01
1.630717608375029522e+04	1.970936759539473826e+02	-8.532965585030346088e-06	-3.295418491826735408e-01
1.630719782288072020e+04	1.968580504969250740e+02	-8.553321859737664592e-06	-3.295305416079880034e-01
1.630721956201114699e+04	1.966193947722197777e+02	-8.574014822331060465e-06	-3.295192488528315700e-01
1.630724130114157379e+04	1.963777317880313547e+02	-8.595045645584036164e-06	-3.295079708908530969e-01
1.630726304027200058e+04	1.961330795002685932e+02	-8.616415981645268480e-06	-3.294967076957502350e-01
1.630728477940242556e+04	1.958854508984536551e+02	-8.638127963237051741e-06	-3.294854592412698180e-01
1.630730651853285235e+04	1.956348541472377462e+02	-8.660184200202044433e-06	-3.294742255012073073e-01
1.630732825766327915e+04	1.953812927814906573e+02	-8.682587771438797261e-06	-3.294630064494065702e-01
1.630734999679370594e+04	1.951247659522839513e+02	-8.705342212321773974e-06	-3.294518020597605457e-01
1.630737173592413092e+04	1.948652687204784399e+02	-8.728451497755771157e-06	-3.294406123062104674e-01
1.630739347505455771e+04	1.946027923940571611e+02	-8.751920021067630185e-06	-3.294294371627458085e-01
1.630741521418498451e+04	1.943373249048243281e+02	-8.775752568988748125e-06	-3.294182766034043364e-01
1.630743695331541130e+04	1.940688512196234399e+02	-8.799954293029733110e-06	-3.294071306022724466e-01
1.630745869244583628e+04	1.937973537808199751e+02	-8.824530677593225627e-06	-3.293959991334843296e-01
1.630748043157626307e+04	1.935228129704513549e+02	-8.849487505211334326e-06	-3.293848821712221375e-01
1.630750217070668987e+04	1.932452075921739549e+02	-8.874830819330374422e-06	-3.293737796897163728e-01
1.630752390983711666e+04	1.929645153649327085e+02	-8.900566885097028479e-06	-3.293626916632449442e-01
1.630754564896754346e+04	1.926807134221519391e+02	-8.926702148626309050e-06	-3.293516180661342219e-01
1.630756738809796843e+04	1.923937788101975173e+02	-8.953243195252092446e-06	-3.293405588727569833e-01
1.630758912722839523e+04	1.921036889798799905e+02	-8.980196707276398739e-06	-3.293295140575351332e-01
1.630761086635882202e+04	1.918104222648760810e+02	-9.007569421742351416e-06	-3.293184835949368727e-01
1.630763260548924882e+04	1.915139583411157389e+02	-9.035368088759199225e-06	-3.293074674594785312e-01
1.630765434461967379e+04	1.912142786614382999e+02	-9.063599430904650432e-06	-3.292964656257234557e-01
1.630767608375010059e+04	1.909113668601330289e+02	-9.092270104221189249e-06	-3.292854780682825111e-01
1.630769782288052738e+04	1.906052091223698710e+02	-9.121386661308285507e-06	-3.292745047618131360e-01
1.630771956201095418e+04	1.902957945139673370e+02	-9.150955516992113729e-06	-3.292635456810205086e-01
1.630774130114137915e+04	1.899831152674494490e+02	-9.180982917028404012e-06	-3.292526008006564364e-01
1.630776304027180595e+04	1.896671670208910143e+02	-9.211474910263179556e-06	-3.292416700955194120e-01
1.630778477940223274e+04	1.893479490066470419e+02	-9.242437324639913158e-06	-3.292307535404552787e-01
1.630780651853265954e+04	1.890254641876869357e+02	-9.273875747401258627e-06	-3.292198511103560654e-01
1.630782825766308451e+04	1.886997193399134574e+02	-9.305795509788698241e-06	-3.292089627801607077e-01
1.630784999679351131e+04	1.883707250795206392e+02	-9.338201676495034383e-06	-3.291980885248547151e-01
1.630787173592393810e+04	1.880384958351328919e+02	-9.371099040072860777e-06	-3.291872283194697824e-01
1.630789347505436490e+04	1.877030497651553560e+02	-9.404492120447842117e-06	-3.291763821390842337e-01
1.630791521418478987e+04	1.873644086214533786e+02	-9.438385169628789838e-06	-3.291655499588223011e-01
1.630793695331521667e+04	1.870225975611465117e+02	-9.472782181648254447e-06	-3.291547317538550677e-01
1.630795869244564346e+04	1.866776449089509242e+02	-9.507686907708033658e-06	-3.291439274993989694e-01
1.630798043157607026e+04	1.863295818731248232e+02	-9.543102876443908798e-06	-3.291331371707168496e-01
1.630800217070649524e+04	1.859784422186491213e+02	-9.579033419164355198e-06	-3.291223607431175147e-01
1.630802390983692203e+04	1.856242619018120479e+02	-9.615481699859159377e-06	-3.291115981919554567e-01
1.630804564896734882e+04	1.852670786708530386e+02	-9.652450749716096347e-06	-3.291008494926311312e-01
1.630806738809777562e+04	1.849069316377433836e+02	-9.689943505828956332e-06	-3.290901146205901795e-01
1.630808912722820060e+04	1.845438608265520486e+02	-9.727962853727158837e-06	-3.290793935513244839e-01
1.630811086635862739e+04	1.841779067041367171e+02	-9.766511673308365623e-06	-3.290686862603710017e-01
1.630813260548905419e+04	1.838091096991328186e+02	-9.805592887709993084e-06	-3.290579927233123203e-01
1.630815434461948098e+04	1.834375097153630634e+02	-9.845209514615297210e-06	-3.290473129157762688e-01
1.630817608374990778e+04	1.830631456458694686e+02	-9.885364719454318685e-06	-3.290366468134357514e-01
1.630819782288033275e+04	1.826860548937738713e+02	-9.926061869930056776e-06	-3.290259943920090802e-01
1.630821956201075955e+04	1.823062729060968934e+02	-9.967304591277109879e-06	-3.290153556272593649e-01
1.630824130114118634e+04	1.819238327265177304e+02	-1.000909682164310196e-05	-3.290047304949951790e-01
1.630826304027161314e+04	1.815387645728338271e+02	-1.005144286697306158e-05	-3.289941189710696712e-01
1.630828477940203811e+04	1.811510954445855077e+02	-1.009434745477457229e-05	-3.289835210313806768e-01
1.630830651853246491e+04	1.807608487659506409e+02	-1.013781578614585318e-05	-3.289729366518711062e-01
1.630832825766289170e+04	1.803680440685920416e+02	-1.018185358546105820e-05	-3.289623658085285007e-01
1.630834999679331850e+04	1.799726967186558966e+02	-1.022646714712689971e-05	-3.289518084773844220e-01
1.630837173592374347e+04	1.795748176915916190e+02	-1.027166337885108535e-05	-3.289412646345157287e-01
1.630839347505417027e+04	1.791744133978812101e+02	-1.031744984089736370e-05	-3.289307342560430225e-01
1.630841521418459706e+04	1.787714855621520655e+02	-1.036383478084281149e-05	-3.289202173181317024e-01
1.630843695331502386e+04	1.783660311575007995e+02	-1.041082716339959529e-05	-3.289097137969911322e-01
1.630845869244544883e+04	1.779580423961853057e+02	-1.045843669491704955e-05	-3.288992236688750292e-01
1.630848043157587563e+04	1.775475067771581621e+02	-1.050667384223780398e-05	-3.288887469100807981e-01
1.630850217070630242e+04	1.771344071902246071e+02	-1.055554984564458896e-05	-3.288782834969503077e-01
1.630852390983672922e+04	1.767187220759209083e+02	-1.060507672570112948e-05	-3.288678334058689479e-01
1.630854564896715419e+04	1.763004256395295499e+02	-1.065526728386028253e-05	-3.288573966132662951e-01
1.630856738809758099e+04	1.758794881169914106e+02	-1.070613509678438821e-05	-3.288469730956153914e-01
1.630858912722800778e+04	1.754558760898426613e+02	-1.075769450439619617e-05	-3.288365628294329102e-01
