# time(us)	tip(nm)	Fts(nN)	Xb(nm)
8.321201719796881662e+03	-3.150594713823842152e+00	3.737325016144001211e+01	-3.150598375082539260e+00
8.321205186962828520e+03	-3.150560946741612689e+00	3.737286994792055594e+01	-3.150564090615644464e+00
8.321208654128775379e+03	-3.150532354206290186e+00	3.737268698880390616e+01	-3.150534980571390253e+00
8.321212121294722238e+03	-3.150508937348554195e+00	3.737270128952914661e+01	-3.150511046100820334e+00
8.321215588460669096e+03	-3.150490697095440051e+00	3.737291284826665105e+01	-3.150492288151330644e+00
8.321219055626615955e+03	-3.150477634170329555e+00	3.737332165591975297e+01	-3.150478707466672912e+00
8.321222522792562813e+03	-3.150469749092904337e+00	3.737392769612439025e+01	-3.150470304586899140e+00
8.321225989958509672e+03	-3.150467042179127208e+00	3.737473094524975181e+01	-3.150467079848345620e+00
8.321229457124456530e+03	-3.150469513541234612e+00	3.737573137239957788e+01	-3.150469033383619610e+00
8.321232924290403389e+03	-3.150477163087731292e+00	3.737692893941302685e+01	-3.150476165121602001e+00
8.321236391456348429e+03	-3.150489990523381856e+00	3.737832360086550665e+01	-3.150488474787427773e+00
8.321239858622295287e+03	-3.150507995349236978e+00	3.737991530407095553e+01	-3.150505961902520191e+00
8.321243325788242146e+03	-3.150531176862670701e+00	3.738170398908393821e+01	-3.150528625784620118e+00
8.321246792954189004e+03	-3.150559534157368891e+00	3.738368958870043457e+01	-3.150556465547780682e+00
8.321250260120135863e+03	-3.150593066123360764e+00	3.738587202845944546e+01	-3.150589480102393480e+00
8.321253727286082722e+03	-3.150631771447100604e+00	3.738825122664692202e+01	-3.150627668155269401e+00
8.321257194452029580e+03	-3.150675648611501956e+00	3.739082709429770546e+01	-3.150671028209674152e+00
8.321260661617976439e+03	-3.150724695895981142e+00	3.739359953519756630e+01	-3.150719558565370448e+00
8.321264128783923297e+03	-3.150778911376532765e+00	3.739656844588645868e+01	-3.150773257318690401e+00
8.321267595949870156e+03	-3.150838292925838058e+00	3.739973371566285465e+01	-3.150832122362643428e+00
8.321271063115817014e+03	-3.150902838213275547e+00	3.740309522658474606e+01	-3.150896151386936683e+00
8.321274530281763873e+03	-3.150972544705072043e+00	3.740665285347471780e+01	-3.150965341878105619e+00
8.321277997447708913e+03	-3.151047409664375909e+00	3.741040646392342239e+01	-3.151039691119602359e+00
8.321281464613655771e+03	-3.151127430151380082e+00	3.741435591829363716e+01	-3.151119196191909833e+00
8.321284931779602630e+03	-3.151212603023420655e+00	3.741850106972421486e+01	-3.151203853972645685e+00
8.321288398945549488e+03	-3.151302924935091010e+00	3.742284176413389218e+01	-3.151293661136671531e+00
8.321291866111496347e+03	-3.151398392338398136e+00	3.742737784022673964e+01	-3.151388614156245715e+00
8.321295333277443206e+03	-3.151499001482869211e+00	3.743210912949603397e+01	-3.151488709301138780e+00
8.321298800443390064e+03	-3.151604748415723911e+00	3.743703545622982887e+01	-3.151593942638792889e+00
8.321302267609336923e+03	-3.151715628982022732e+00	3.744215663751613477e+01	-3.151704310034478151e+00
8.321305734775283781e+03	-3.151831638824827753e+00	3.744747248324823374e+01	-3.151819807151447606e+00
8.321309201941230640e+03	-3.151952773385356732e+00	3.745298279612979542e+01	-3.151940429451100201e+00
8.321312669107177499e+03	-3.152079027903166519e+00	3.745868737168033391e+01	-3.152066172193144222e+00
8.321316136273124357e+03	-3.152210397416347121e+00	3.746458599824214275e+01	-3.152197030435811342e+00
8.321319603439069397e+03	-3.152346876761711769e+00	3.747067845698602895e+01	-3.152332999036033812e+00
8.321323070605016255e+03	-3.152488460574984330e+00	3.747696452191718208e+01	-3.152474072649634085e+00
8.321326537770963114e+03	-3.152635143291033781e+00	3.748344395988284816e+01	-3.152620245731556636e+00
8.321330004936909972e+03	-3.152786919144083377e+00	3.749011653057878135e+01	-3.152771512536081566e+00
8.321333472102856831e+03	-3.152943782167898945e+00	3.749698198655487857e+01	-3.152927867117008454e+00
8.321336939268803690e+03	-3.153105726196057113e+00	3.750404007322358524e+01	-3.153089303327921034e+00
8.321340406434750548e+03	-3.153272744862200661e+00	3.751129052886815174e+01	-3.153255814822446101e+00
8.321343873600697407e+03	-3.153444831600235698e+00	3.751873308464831069e+01	-3.153427395054453353e+00
8.321347340766644265e+03	-3.153621979644599005e+00	3.752636746460821371e+01	-3.153604037278312955e+00
8.321350807932591124e+03	-3.153804182030560010e+00	3.753419338568603791e+01	-3.153785734549197972e+00
8.321354275098537983e+03	-3.153991431594481032e+00	3.754221055772207905e+01	-3.153972479723351707e+00
8.321357742264484841e+03	-3.154183720974046867e+00	3.755041868346506106e+01	-3.154164265458311966e+00
8.321361209430429881e+03	-3.154381042608596530e+00	3.755881745858246035e+01	-3.154361084213240130e+00
8.321364676596376739e+03	-3.154583388739404359e+00	3.756740657166896113e+01	-3.154562928249203146e+00
8.321368143762323598e+03	-3.154790751409999761e+00	3.757618570425599813e+01	-3.154769789629491061e+00
8.321371610928270456e+03	-3.155003122466448762e+00	3.758515453082029012e+01	-3.154981660219903006e+00
8.321375078094217315e+03	-3.155220493557666206e+00	3.759431271879272174e+01	-3.155198531689054064e+00
8.321378545260164174e+03	-3.155442856135775465e+00	3.760365992856938533e+01	-3.155420395508730547e+00
8.321382012426111032e+03	-3.155670201456420187e+00	3.761319581352086772e+01	-3.155647242954209730e+00
8.321385479592057891e+03	-3.155902520579108028e+00	3.762292002000231150e+01	-3.155879065104598258e+00
8.321388946758004749e+03	-3.156139804367549484e+00	3.763283218736345503e+01	-3.156115852843170977e+00
8.321392413923951608e+03	-3.156382043490021605e+00	3.764293194795899922e+01	-3.156357596857728876e+00
8.321395881089898467e+03	-3.156629228419745026e+00	3.765321892716051622e+01	-3.156604287640984552e+00
8.321399348255845325e+03	-3.156881349435235684e+00	3.766369274336609863e+01	-3.156855915490906828e+00
8.321402815421790365e+03	-3.157138396620661869e+00	3.767435300801100340e+01	-3.157112470511082236e+00
8.321406282587737223e+03	-3.157400359866266104e+00	3.768519932557997265e+01	-3.157373942611127582e+00
8.321409749753684082e+03	-3.157667228868745291e+00	3.769623129361839631e+01	-3.157640321507074077e+00
8.321413216919630941e+03	-3.157938993131669037e+00	3.770744850274497395e+01	-3.157911596721789227e+00
8.321416684085577799e+03	-3.158215641965861575e+00	3.771885053666233034e+01	-3.158187757585352973e+00
8.321420151251524658e+03	-3.158497164489824094e+00	3.773043697216940728e+01	-3.158468793235477357e+00
8.321423618417471516e+03	-3.158783549630173937e+00	3.774220737917461577e+01	-3.158754692617950166e+00
8.321427085583418375e+03	-3.159074786122068268e+00	3.775416132070809283e+01	-3.159045444487057264e+00
8.321430552749365233e+03	-3.159370862509619293e+00	3.776629835293330473e+01	-3.159341037405991592e+00
8.321434019915312092e+03	-3.159671767146383647e+00	3.777861802516204648e+01	-3.159641459747347003e+00
8.321437487081258951e+03	-3.159977488195783835e+00	3.779111987986629373e+01	-3.159946699693538807e+00
8.321440954247205809e+03	-3.160288013631558979e+00	3.780380345269130515e+01	-3.160256745237254528e+00
8.321444421413150849e+03	-3.160603331238252434e+00	3.781666827246955620e+01	-3.160571584181932625e+00
8.321447888579097707e+03	-3.160923428611713160e+00	3.782971386123625734e+01	-3.160891204142273203e+00
8.321451355745044566e+03	-3.161248293159527378e+00	3.784293973424084356e+01	-3.161215592544664776e+00
8.321454822910991425e+03	-3.161577912101534604e+00	3.785634539996260628e+01	-3.161544736627700747e+00
8.321458290076938283e+03	-3.161912272470339680e+00	3.786993036012537317e+01	-3.161878623442685665e+00
8.321461757242885142e+03	-3.162251361111787951e+00	3.788369410971134243e+01	-3.162217239854117956e+00
8.321465224408832000e+03	-3.162595164685495064e+00	3.789763613697644473e+01	-3.162560572540213055e+00
8.321468691574778859e+03	-3.162943669665356339e+00	3.791175592346525747e+01	-3.162908607993416776e+00
8.321472158740725718e+03	-3.163296862340082782e+00	3.792605294402628857e+01	-3.163261332520930225e+00
8.321475625906672576e+03	-3.163654728813741546e+00	3.794052666682822661e+01	-3.163618732245264908e+00
8.321479093072619435e+03	-3.164017255006275953e+00	3.795517655337449980e+01	-3.163980793104749445e+00
8.321482560238566293e+03	-3.164384426654062388e+00	3.797000205851993115e+01	-3.164347500854094886e+00
8.321486027404511333e+03	-3.164756229310468960e+00	3.798500263048644854e+01	-3.164718841064942279e+00
8.321489494570458191e+03	-3.165132648346431488e+00	3.800017771088042906e+01	-3.165094799126444425e+00
8.321492961736405050e+03	-3.165513668951008164e+00	3.801552673470872890e+01	-3.165475360245823655e+00
8.321496428902351909e+03	-3.165899276131958651e+00	3.803104913039532420e+01	-3.165860509448942928e+00
8.321499896068298767e+03	-3.166289454716313845e+00	3.804674431979795912e+01	-3.166250231580879149e+00
8.321503363234245626e+03	-3.166684189350996270e+00	3.806261171822624334e+01	-3.166644511306537790e+00
8.321506830400192484e+03	-3.167083464503402279e+00	3.807865073445896087e+01	-3.167043333111243086e+00
8.321510297566139343e+03	-3.167487264462005125e+00	3.809486077076118704e+01	-3.167446681301331335e+00
8.321513764732086202e+03	-3.167895573336970472e+00	3.811124122290256366e+01	-3.167854540004771735e+00
8.321517231898033060e+03	-3.168308375060781668e+00	3.812779148017553865e+01	-3.168266893171788556e+00
8.321520699063979919e+03	-3.168725653388855701e+00	3.814451092541333566e+01	-3.168683724575476202e+00
8.321524166229926777e+03	-3.169147391900183575e+00	3.816139893500864844e+01	-3.169105017812439584e+00
8.321527633395871817e+03	-3.169573573997978677e+00	3.817845487893269052e+01	-3.169530756303437613e+00
8.321531100561818675e+03	-3.170004182910313162e+00	3.819567812075437985e+01	-3.169960923294035116e+00
8.321534567727765534e+03	-3.170439201690743225e+00	3.821306801765736338e+01	-3.170395501855204135e+00
8.321538034893712393e+03	-3.170878613219016984e+00	3.823062392046192315e+01	-3.170834474884044241e+00
8.321541502059659251e+03	-3.171322400201725511e+00	3.824834517364387665e+01	-3.171277825104434900e+00
8.321544969225606110e+03	-3.171770545172966749e+00	3.826623111535387523e+01	-3.171725535067689172e+00
8.321548436391552968e+03	-3.172223030495051610e+00	3.828428107743849296e+01	-3.172177587153268696e+00
8.321551903557499827e+03	-3.172679838359170557e+00	3.830249438545964580e+01	-3.172633963569441828e+00
8.321555370723446686e+03	-3.173140950786105474e+00	3.832087035871600733e+01	-3.173094646354004400e+00
8.321558837889393544e+03	-3.173606349626894030e+00	3.833940831026180973e+01	-3.173559617374932529e+00
8.321562305055340403e+03	-3.174076016563571745e+00	3.835810754692952429e+01	-3.174028858331132241e+00
8.321565772221287261e+03	-3.174549933109879873e+00	3.837696736935041741e+01	-3.174502350753139801e+00
8.321569239387232301e+03	-3.175028080611973280e+00	3.839598707197581007e+01	-3.174980076003839802e+00
8.321572706553179160e+03	-3.175510440249164290e+00	3.841516594309867116e+01	-3.175462015279190364e+00
8.321576173719126018e+03	-3.175996993034672311e+00	3.843450326487667468e+01	-3.175948149608990967e+00
8.321579640885072877e+03	-3.176487719816331712e+00	3.845399831335265617e+01	-3.176438459857580554e+00
8.321583108051019735e+03	-3.176982601277342777e+00	3.847365035847693093e+01	-3.176932926724588935e+00
8.321586575216966594e+03	-3.177481617937051084e+00	3.849345866413069928e+01	-3.177431530745711274e+00
8.321590042382913452e+03	-3.177984750151686022e+00	3.851342248814823677e+01	-3.177934252293456385e+00
8.321593509548860311e+03	-3.178491978115118854e+00	3.853354108233912712e+01	-3.178441071577895460e+00
8.321596976714807170e+03	-3.179003281859669627e+00	3.855381369251274037e+01	-3.178951968647469428e+00
8.321600443880754028e+03	-3.179518641256859457e+00	3.857423955850069319e+01	-3.179466923389743460e+00
8.321603911046700887e+03	-3.180038036018197900e+00	3.859481791418027541e+01	-3.179985915532191676e+00
8.321607378212647745e+03	-3.180561445696005851e+00	3.861554798749959616e+01	-3.180508924643019597e+00
8.321610845378592785e+03	-3.181088849684161168e+00	3.863642900049961781e+01	-3.181035930131915102e+00
8.321614312544539644e+03	-3.181620227218941110e+00	3.865746016933938023e+01	-3.181566911250874430e+00
8.321617779710486502e+03	-3.182155557379833688e+00	3.867864070432106871e+01	-3.182101847095030855e+00
8.321621246876433361e+03	-3.182694819090338356e+00	3.869996980991376034e+01	-3.182640716603446052e+00
8.321624714042380219e+03	-3.183237991118794241e+00	3.872144668477842799e+01	-3.183183498559935209e+00
8.321628181208327078e+03	-3.183785052079221689e+00	3.874307052179378275e+01	-3.183730171593916580e+00
8.321631648374273936e+03	-3.184335980432134061e+00	3.876484050808050341e+01	-3.184280714181213945e+00
8.321635115540220795e+03	-3.184890754485400155e+00	3.878675582502768293e+01	-3.184835104644923920e+00
8.321638582706167654e+03	-3.185449352395078204e+00	3.880881564831799579e+01	-3.185393321156245960e+00
8.321642049872114512e+03	-3.186011752166281852e+00	3.883101914795444287e+01	-3.185955341735352775e+00
8.321645517038061371e+03	-3.186577931654017704e+00	3.885336548828530567e+01	-3.186521144252220328e+00
8.321648984204008229e+03	-3.187147868564070397e+00	3.887585382803170120e+01	-3.187090706427515574e+00
8.321652451369953269e+03	-3.187721540453892999e+00	3.889848332031473888e+01	-3.187664005833485525e+00
8.321655918535900128e+03	-3.188298924733440565e+00	3.892125311268116405e+01	-3.188241019894797024e+00
8.321659385701846986e+03	-3.188879998666074744e+00	3.894416234713073521e+01	-3.188821725889430247e+00
8.321662852867793845e+03	-3.189464739369467505e+00	3.896721016014446803e+01	-3.189406100949586875e+00
8.321666320033740703e+03	-3.190053123816461778e+00	3.899039568271087575e+01	-3.189994122062552062e+00
8.321669787199687562e+03	-3.190645128835976063e+00	3.901371804035380819e+01	-3.190585766071595497e+00
8.321673254365634421e+03	-3.191240731113950346e+00	3.903717635316189671e+01	-3.191181009676913316e+00
8.321676721531581279e+03	-3.191839907194230275e+00	3.906076973581593847e+01	-3.191779829436520277e+00
8.321680188697528138e+03	-3.192442633479481096e+00	3.908449729761720448e+01	-3.192382201767159255e+00
8.321683655863474996e+03	-3.193048886232097594e+00	3.910835814251546338e+01	-3.192988102945209405e+00
8.321687123029421855e+03	-3.193658641575165547e+00	3.913235136913903034e+01	-3.193597509107644505e+00
8.321690590195368713e+03	-3.194271875493380985e+00	3.915647607082357240e+01	-3.194210396252958439e+00
8.321694057361313753e+03	-3.194888563833996997e+00	3.918073133564168131e+01	-3.194826740242106222e+00
8.321697524527260612e+03	-3.195508682307746540e+00	3.920511624643135917e+01	-3.195446516799429482e+00
8.321700991693207470e+03	-3.196132206489804339e+00	3.922962988082650071e+01	-3.196069701513617023e+00
8.321704458859154329e+03	-3.196759111820766108e+00	3.925427131128748215e+01	-3.196696269838678273e+00
8.321707926025101187e+03	-3.197389373607561591e+00	3.927903960512987425e+01	-3.197326197094867872e+00
8.321711393191048046e+03	-3.198022967024472418e+00	3.930393382455640960e+01	-3.197959458469685323e+00
8.321714860356994905e+03	-3.198659867114066913e+00	3.932895302668677573e+01	-3.198596029018829334e+00
8.321718327522941763e+03	-3.199300048788181527e+00	3.935409626358826074e+01	-3.199235883667165492e+00
8.321721794688888622e+03	-3.199943486828914718e+00	3.937936258230714515e+01	-3.199878997209717468e+00
8.321725261854835480e+03	-3.200590155889627919e+00	3.940475102490115233e+01	-3.200525344312680875e+00
8.321728729020782339e+03	-3.201240030495909661e+00	3.943026062846941926e+01	-3.201174899514375838e+00
8.321732196186729198e+03	-3.201893085046572107e+00	3.945589042518420797e+01	-3.201827637226245749e+00
8.321735663352674237e+03	-3.202549293814660469e+00	3.948163944232341294e+01	-3.202483531733867572e+00
8.321739130518621096e+03	-3.203208630948495284e+00	3.950750670230364392e+01	-3.203142557197987905e+00
8.321742597684567954e+03	-3.203871070472644966e+00	3.953349122271174565e+01	-3.203804687655506633e+00
8.321746064850514813e+03	-3.204536586288937894e+00	3.955959201633664435e+01	-3.204469897020479685e+00
8.321749532016461671e+03	-3.205205152177510897e+00	3.958580809120340405e+01	-3.205138159085165306e+00
8.321752999182408530e+03	-3.205876741797816454e+00	3.961213845060562022e+01	-3.205809447521040578e+00
8.321756466348355389e+03	-3.206551328689669855e+00	3.963858209313892189e+01	-3.206483735879834818e+00
8.321759933514302247e+03	-3.207228886274291035e+00	3.966513801273517714e+01	-3.207160997594583840e+00
8.321763400680249106e+03	-3.207909387855316652e+00	3.969180519869470203e+01	-3.207841205980634047e+00
8.321766867846195964e+03	-3.208592806619871229e+00	3.971858263572128322e+01	-3.208524334236714903e+00
8.321770335012142823e+03	-3.209279115639603219e+00	3.974546930395561617e+01	-3.209210355445974105e+00
8.321773802178089682e+03	-3.209968287871755255e+00	3.977246417901034903e+01	-3.209899242577046063e+00
8.321777269344034721e+03	-3.210660296160220639e+00	3.979956623200457244e+01	-3.210590968485113716e+00
8.321780736509981580e+03	-3.211355113236611381e+00	3.982677442959862901e+01	-3.211285505912968130e+00
8.321784203675928438e+03	-3.212052711721304465e+00	3.985408773402826199e+01	-3.211982827492060988e+00
8.321787670841875297e+03	-3.212753064124532987e+00	3.988150510314058295e+01	-3.212682905743593054e+00
8.321791138007822155e+03	-3.213456142847473274e+00	3.990902549042958469e+01	-3.213385713079594641e+00
8.321794605173769014e+03	-3.214161920183323140e+00	3.993664784507206633e+01	-3.214091221804015852e+00
8.321798072339715873e+03	-3.214870368318360150e+00	3.996437111196204484e+01	-3.214799404113774628e+00
8.321801539505662731e+03	-3.215581459333060721e+00	3.999219423174801591e+01	-3.215510232099880739e+00
8.321805006671609590e+03	-3.216295165203185924e+00	4.002011614086887192e+01	-3.216223677748516696e+00
8.321808473837556448e+03	-3.217011457800882823e+00	4.004813577159036697e+01	-3.216939712942139096e+00
8.321811941003503307e+03	-3.217730308895797364e+00	4.007625205204235641e+01	-3.217658309460597277e+00
8.321815408169450166e+03	-3.218451690156167277e+00	4.010446390625491375e+01	-3.218379438982216900e+00
8.321818875335395205e+03	-3.219175573149951841e+00	4.013277025419642285e+01	-3.219103073084936817e+00
8.321822342501342064e+03	-3.219901929345917679e+00	4.016117001180956692e+01	-3.219829183247393978e+00
8.321825809667288922e+03	-3.220630730114785845e+00	4.018966209104976173e+01	-3.220557740850061190e+00
8.321829276833235781e+03	-3.221361946730344705e+00	4.021824539992270076e+01	-3.221288717176369332e+00
8.321832743999182640e+03	-3.222095550370586814e+00	4.024691884252259655e+01	-3.222022083413840665e+00
8.321836211165129498e+03	-3.222831512118815578e+00	4.027568131906951976e+01	-3.222757810655197286e+00
8.321839678331076357e+03	-3.223569802964802111e+00	4.030453172594808109e+01	-3.223495869899509980e+00
8.321843145497023215e+03	-3.224310393805930097e+00	4.033346895574683799e+01	-3.224236232053351969e+00
8.321846612662970074e+03	-3.225053255448312228e+00	4.036249189729571185e+01	-3.224978867931910909e+00
8.321850079828916932e+03	-3.225798358607952387e+00	4.039159943570538758e+01	-3.225723748260148849e+00
8.321853546994863791e+03	-3.226545673911916712e+00	4.042079045240770085e+01	-3.226470843673974187e+00
8.321857014160810650e+03	-3.227295171899439818e+00	4.045006382519297716e+01	-3.227220124721354555e+00
8.321860481326755689e+03	-3.228046823023129175e+00	4.047941842825120062e+01	-3.227971561863505645e+00
8.321863948492702548e+03	-3.228800597650104187e+00	4.050885313221131412e+01	-3.228725125476044067e+00
8.321867415658649406e+03	-3.229556466063133957e+00	4.053836680418003624e+01	-3.229480785850122881e+00
8.321870882824596265e+03	-3.230314398461856307e+00	4.056795830778364120e+01	-3.230238513193637750e+00
8.321874349990543124e+03	-3.231074364963911094e+00	4.059762650320755029e+01	-3.230998277632377125e+00
