# time(us)	tip(nm)	Fts(nN)	Xb(nm)
8.321201719796881662e+03	-4.747125103815159619e+00	7.796986832313510263e+01	-4.747127844737190294e+00
8.321205186962828520e+03	-4.747100035605643420e+00	7.796960240296743905e+01	-4.747102350874306431e+00
8.321208654128775379e+03	-4.747079224449124446e+00	7.796953568220511954e+01	-4.747081113972513755e+00
8.321212121294722238e+03	-4.747062671172434634e+00	7.796966816265320688e+01	-4.747064134875411234e+00
8.321215588460669096e+03	-4.747050376434686747e+00	7.796999983854237826e+01	-4.747051414258891100e+00
8.321219055626615955e+03	-4.747042340727249510e+00	7.797053069652824320e+01	-4.747042952631089996e+00
8.321222522792562813e+03	-4.747038564373745828e+00	7.797126071569404360e+01	-4.747038750332412960e+00
8.321225989958509672e+03	-4.747039047530022593e+00	7.797218986754953107e+01	-4.747038807535481020e+00
8.321229457124456530e+03	-4.747043790184171996e+00	7.797331811603383755e+01	-4.747043124245159618e+00
8.321232924290403389e+03	-4.747052792156463141e+00	7.797464541751415368e+01	-4.747051700298507093e+00
8.321236391456348429e+03	-4.747066053099414873e+00	7.797617172078881254e+01	-4.747064535364808435e+00
8.321239858622295287e+03	-4.747083572497784232e+00	7.797789696708977658e+01	-4.747081628945603704e+00
8.321243325788242146e+03	-4.747105349668573560e+00	7.797982109008269447e+01	-4.747102980374665826e+00
8.321246792954189004e+03	-4.747131383761090007e+00	7.798194401587142011e+01	-4.747128588818069872e+00
8.321250260120135863e+03	-4.747161673756986389e+00	7.798426566300079799e+01	-4.747158453274233025e+00
8.321253727286082722e+03	-4.747196218470249640e+00	7.798678594245743056e+01	-4.747192572573906588e+00
8.321257194452029580e+03	-4.747235016547293185e+00	7.798950475767429680e+01	-4.747230945380258582e+00
8.321260661617976439e+03	-4.747278066466997792e+00	7.799242200453407747e+01	-4.747273570188918157e+00
8.321264128783923297e+03	-4.747325366540755098e+00	7.799553757137209686e+01	-4.747320445328030658e+00
8.321267595949870156e+03	-4.747376914912527113e+00	7.799885133897923595e+01	-4.747371568958294041e+00
8.321271063115817014e+03	-4.747432709558949249e+00	7.800236318060765939e+01	-4.747426939073070784e+00
8.321274530281763873e+03	-4.747492748289392495e+00	7.800607296197479457e+01	-4.747486553498455386e+00
8.321277997447708913e+03	-4.747557028746035357e+00	7.800998054126694115e+01	-4.747550409893340984e+00
8.321281464613655771e+03	-4.747625548403994422e+00	7.801408576914610649e+01	-4.747618505749549023e+00
8.321284931779602630e+03	-4.747698304571400740e+00	7.801838848875362942e+01	-4.747690838391901202e+00
8.321288398945549488e+03	-4.747775294389484202e+00	7.802288853571550931e+01	-4.747767404978317174e+00
8.321291866111496347e+03	-4.747856514832716535e+00	7.802758573814818988e+01	-4.747848202499934445e+00
8.321295333277443206e+03	-4.747941962708915220e+00	7.803247991666478356e+01	-4.747933227781230947e+00
8.321298800443390064e+03	-4.748031634659382938e+00	7.803757088438152323e+01	-4.748022477480156489e+00
8.321302267609336923e+03	-4.748125527159016812e+00	7.804285844692299179e+01	-4.748115948088242000e+00
8.321305734775283781e+03	-4.748223636516471835e+00	7.804834240243008026e+01	-4.748213635930761178e+00
8.321309201941230640e+03	-4.748325958874283437e+00	7.805402254156581421e+01	-4.748315537166853950e+00
8.321312669107177499e+03	-4.748432490209005152e+00	7.805989864752190499e+01	-4.748421647789666800e+00
8.321316136273124357e+03	-4.748543226331398692e+00	7.806597049602734728e+01	-4.748531963626531294e+00
8.321319603439069397e+03	-4.748658162886600920e+00	7.807223785535634875e+01	-4.748646480339138165e+00
8.321323070605016255e+03	-4.748777295354245531e+00	7.807870048633452598e+01	-4.748765193423666986e+00
8.321326537770963114e+03	-4.748900619048685101e+00	7.808535814234818417e+01	-4.748888098210989561e+00
8.321330004936909972e+03	-4.749028129119157171e+00	7.809221056935226102e+01	-4.749015189866843123e+00
8.321333472102856831e+03	-4.749159820549976097e+00	7.809925750587940740e+01	-4.749146463392030171e+00
8.321336939268803690e+03	-4.749295688160723117e+00	7.810649868304800236e+01	-4.749281913622593443e+00
8.321340406434750548e+03	-4.749435726606471064e+00	7.811393382457272594e+01	-4.749421535230047731e+00
8.321343873600697407e+03	-4.749579930377967329e+00	7.812156264677255990e+01	-4.749565322721564620e+00
8.321347340766644265e+03	-4.749728293801863899e+00	7.812938485858111903e+01	-4.749713270440194535e+00
8.321350807932591124e+03	-4.749880811040947393e+00	7.813740016155668400e+01	-4.749865372565098554e+00
8.321354275098537983e+03	-4.750037476094336242e+00	7.814560824989158050e+01	-4.750021623111757130e+00
8.321357742264484841e+03	-4.750198282797750693e+00	7.815400881042310743e+01	-4.750182015932211677e+00
8.321361209430429881e+03	-4.750363224823729524e+00	7.816260152264420924e+01	-4.750346544715317698e+00
8.321364676596376739e+03	-4.750532295681869854e+00	7.817138605871292611e+01	-4.750515202986946406e+00
8.321368143762323598e+03	-4.750705488719114022e+00	7.818036208346583749e+01	-4.750687984110300022e+00
8.321371610928270456e+03	-4.750882797119987622e+00	7.818952925442754065e+01	-4.750864881286126717e+00
8.321375078094217315e+03	-4.751064213906928124e+00	7.819888722182651009e+01	-4.751045887553069669e+00
8.321378545260164174e+03	-4.751249731940389687e+00	7.820843562859823805e+01	-4.751230995787766531e+00
8.321382012426111032e+03	-4.751439343919254377e+00	7.821817411040298396e+01	-4.751420198705240239e+00
8.321385479592057891e+03	-4.751633042381132377e+00	7.822810229563954465e+01	-4.751613488859216972e+00
8.321388946758004749e+03	-4.751830819702591135e+00	7.823821980545518784e+01	-4.751810858642354418e+00
8.321392413923951608e+03	-4.752032668099504420e+00	7.824852625376010451e+01	-4.752012300286580171e+00
8.321395881089898467e+03	-4.752238579627335646e+00	7.825902124724059661e+01	-4.752217805863390154e+00
8.321399348255845325e+03	-4.752448546181407885e+00	7.826970438536939412e+01	-4.752427367284105308e+00
8.321402815421790365e+03	-4.752662559497291994e+00	7.828057526042303493e+01	-4.752640976300255282e+00
8.321406282587737223e+03	-4.752880611151073964e+00	7.829163345749329039e+01	-4.752858624503860874e+00
8.321409749753684082e+03	-4.753102692559715514e+00	7.830287855450264090e+01	-4.753080303327782197e+00
8.321413216919630941e+03	-4.753328794981380057e+00	7.831431012221788990e+01	-4.753306004046045530e+00
8.321416684085577799e+03	-4.753558909515772868e+00	7.832592772426515637e+01	-4.753535717774189706e+00
8.321420151251524658e+03	-4.753793027104473268e+00	7.833773091714313352e+01	-4.753769435469583193e+00
8.321423618417471516e+03	-4.754031138531327194e+00	7.834971925024119344e+01	-4.754007147931839761e+00
8.321427085583418375e+03	-4.754273234422789152e+00	7.836189226585238998e+01	-4.754248845803125789e+00
8.321430552749365233e+03	-4.754519305248273930e+00	7.837424949919008554e+01	-4.754494519568554622e+00
8.321434019915312092e+03	-4.754769341320564280e+00	7.838679047840327030e+01	-4.754744159556546279e+00
8.321437487081258951e+03	-4.755023332796140423e+00	7.839951472459242154e+01	-4.754997755939197823e+00
8.321440954247205809e+03	-4.755281269675609934e+00	7.841242175182638618e+01	-4.755255298732685709e+00
8.321444421413150849e+03	-4.755543141804070117e+00	7.842551106715842479e+01	-4.755516777797641481e+00
8.321447888579097707e+03	-4.755808938871510350e+00	7.843878217064289515e+01	-4.755782182839546124e+00
8.321451355745044566e+03	-4.756078650413232189e+00	7.845223455535295898e+01	-4.756051503409151060e+00
8.321454822910991425e+03	-4.756352265810257052e+00	7.846586770739835970e+01	-4.756324728902888488e+00
8.321458290076938283e+03	-4.756629774289726775e+00	7.847968110594170810e+01	-4.756601848563269286e+00
8.321461757242885142e+03	-4.756911164925337943e+00	7.849367422321688537e+01	-4.756882851479314667e+00
8.321465224408832000e+03	-4.757196426637735343e+00	7.850784652454608192e+01	-4.757167726586955858e+00
8.321468691574778859e+03	-4.757485548195003133e+00	7.852219746835982050e+01	-4.757456462669512831e+00
8.321472158740725718e+03	-4.757778518213066299e+00	7.853672650621450657e+01	-4.757749048358107302e+00
8.321475625906672576e+03	-4.758075325156124968e+00	7.855143308281030556e+01	-4.758045472132092613e+00
8.321479093072619435e+03	-4.758375957337146467e+00	7.856631663601170601e+01	-4.758345722319535120e+00
8.321482560238566293e+03	-4.758680402918302299e+00	7.858137659686644838e+01	-4.758649787097666284e+00
8.321486027404511333e+03	-4.758988649911422897e+00	7.859661238962458185e+01	-4.758957654493333855e+00
8.321489494570458191e+03	-4.759300686178487005e+00	7.861202343175818896e+01	-4.759269312383475281e+00
8.321492961736405050e+03	-4.759616499432068437e+00	7.862760913398138030e+01	-4.759584748495585771e+00
8.321496428902351909e+03	-4.759936077235830787e+00	7.864336890027014704e+01	-4.759903950408200579e+00
8.321499896068298767e+03	-4.760259407005062116e+00	7.865930212788505571e+01	-4.760226905551417254e+00
8.321503363234245626e+03	-4.760586476007080847e+00	7.867540820738879859e+01	-4.760553601207331731e+00
8.321506830400192484e+03	-4.760917271361744696e+00	7.869168652266708364e+01	-4.760884024510531276e+00
8.321510297566139343e+03	-4.761251780042019099e+00	7.870813645095168454e+01	-4.761218162448638047e+00
8.321513764732086202e+03	-4.761589988874454171e+00	7.872475736284216907e+01	-4.761556001862823351e+00
8.321517231898033060e+03	-4.761931884539690962e+00	7.874154862232626328e+01	-4.761897529448298805e+00
8.321520699063979919e+03	-4.762277453573011243e+00	7.875850958680278779e+01	-4.762242731754856351e+00
8.321524166229926777e+03	-4.762626682364838437e+00	7.877563960710286040e+01	-4.762591595187381621e+00
8.321527633395871817e+03	-4.762979557161259869e+00	7.879293802751207920e+01	-4.762944106006370859e+00
8.321531100561818675e+03	-4.763336064064607633e+00	7.881040418579419793e+01	-4.763300250328506458e+00
8.321534567727765534e+03	-4.763696189033978179e+00	7.882803741321397695e+01	-4.763660014127187203e+00
8.321538034893712393e+03	-4.764059917885764328e+00	7.884583703455845693e+01	-4.764023383233049636e+00
8.321541502059659251e+03	-4.764427236294235257e+00	7.886380236816187050e+01	-4.764390343334548028e+00
8.321544969225606110e+03	-4.764798129792108483e+00	7.888193272592960170e+01	-4.764760879978533481e+00
8.321548436391552968e+03	-4.765172583771081882e+00	7.890022741336041179e+01	-4.765134978570775282e+00
8.321551903557499827e+03	-4.765550583482414559e+00	7.891868572957099559e+01	-4.765512624376556872e+00
8.321555370723446686e+03	-4.765932114037505052e+00	7.893730696731985574e+01	-4.765893802521232736e+00
8.321558837889393544e+03	-4.766317160408505949e+00	7.895609041303329434e+01	-4.766278497990851903e+00
8.321562305055340403e+03	-4.766705707428886996e+00	7.897503534682977033e+01	-4.766666695632729933e+00
8.321565772221287261e+03	-4.767097739794032840e+00	7.899414104254377378e+01	-4.767058380156028896e+00
8.321569239387232301e+03	-4.767493242061834557e+00	7.901340676775195959e+01	-4.767453536132366665e+00
8.321572706553179160e+03	-4.767892198653295388e+00	7.903283178379732021e+01	-4.767852147996402223e+00
8.321576173719126018e+03	-4.768294593853158680e+00	7.905241534581681151e+01	-4.768254200046484925e+00
8.321579640885072877e+03	-4.768700411810495865e+00	7.907215670276501385e+01	-4.768659676445219375e+00
8.321583108051019735e+03	-4.769109636539373476e+00	7.909205509744300855e+01	-4.769068561220146663e+00
8.321586575216966594e+03	-4.769522251919414479e+00	7.911210976652148474e+01	-4.769480838264305689e+00
8.321590042382913452e+03	-4.769938241696500825e+00	7.913231994057059637e+01	-4.769896491336921507e+00
8.321593509548860311e+03	-4.770357589483351646e+00	7.915268484408441907e+01	-4.770315504064005729e+00
8.321596976714807170e+03	-4.770780278760185844e+00	7.917320369550823500e+01	-4.770737859938994241e+00
8.321600443880754028e+03	-4.771206292875377564e+00	7.919387570726674141e+01	-4.771163542323418660e+00
8.321603911046700887e+03	-4.771635615046099232e+00	7.921470008579100863e+01	-4.771592534447539613e+00
8.321607378212647745e+03	-4.772068228358985920e+00	7.923567603154616279e+01	-4.772024819411014640e+00
8.321610845378592785e+03	-4.772504115770805910e+00	7.925680273906067441e+01	-4.772460380183576767e+00
8.321614312544539644e+03	-4.772943260109096641e+00	7.927807939695190953e+01	-4.772899199605652676e+00
8.321617779710486502e+03	-4.773385644072873468e+00	7.929950518795632775e+01	-4.773341260389071472e+00
8.321621246876433361e+03	-4.773831250233308232e+00	7.932107928895939608e+01	-4.773786545117768121e+00
8.321624714042380219e+03	-4.774280061034375855e+00	7.934280087102116852e+01	-4.774235036248402508e+00
8.321628181208327078e+03	-4.774732058793598632e+00	7.936466909940912728e+01	-4.774686716111113505e+00
8.321631648374273936e+03	-4.775187225702701710e+00	7.938668313362491347e+01	-4.775141566910171775e+00
8.321635115540220795e+03	-4.775645543828280992e+00	7.940884212743331716e+01	-4.775599570724656573e+00
8.321638582706167654e+03	-4.776106995112551878e+00	7.943114522889337081e+01	-4.776060709509191149e+00
8.321642049872114512e+03	-4.776571561374042929e+00	7.945359158038787939e+01	-4.776524965094635533e+00
8.321645517038061371e+03	-4.777039224308340160e+00	7.947618031865539479e+01	-4.776992319188841485e+00
8.321648984204008229e+03	-4.777509965488759391e+00	7.949891057481836754e+01	-4.777462753377316851e+00
8.321652451369953269e+03	-4.777983766367078999e+00	7.952178147441441070e+01	-4.777936249123965418e+00
8.321655918535900128e+03	-4.778460608274290422e+00	7.954479213742763477e+01	-4.778412787771819659e+00
8.321659385701846986e+03	-4.778940472421318475e+00	7.956794167832006792e+01	-4.778892350543780587e+00
8.321662852867793845e+03	-4.779423339899757650e+00	7.959122920606264984e+01	-4.779374918543346062e+00
8.321666320033740703e+03	-4.779909191682575553e+00	7.961465382416417924e+01	-4.779860472755305345e+00
8.321669787199687562e+03	-4.780398008624918482e+00	7.963821463070716788e+01	-4.780348994046556221e+00
8.321673254365634421e+03	-4.780889771464843285e+00	7.966191071837802440e+01	-4.780840463166832421e+00
8.321676721531581279e+03	-4.781384460824062543e+00	7.968574117449900029e+01	-4.781334860749446136e+00
8.321680188697528138e+03	-4.781882057208721726e+00	7.970970508106115915e+01	-4.781832167312060733e+00
8.321683655863474996e+03	-4.782382541010148813e+00	7.973380151475693367e+01	-4.782332363257458141e+00
8.321687123029421855e+03	-4.782885892505626124e+00	7.975802954701235592e+01	-4.782835428874286698e+00
8.321690590195368713e+03	-4.783392091859163919e+00	7.978238824402041018e+01	-4.783341344337850742e+00
8.321694057361313753e+03	-4.783901119122293544e+00	7.980687666677496850e+01	-4.783850089710893094e+00
8.321697524527260612e+03	-4.784412954234819715e+00	7.983149387110270823e+01	-4.784361644944355341e+00
8.321700991693207470e+03	-4.784927577025626100e+00	7.985623890769795707e+01	-4.784875989878178970e+00
8.321704458859154329e+03	-4.785444967213477341e+00	7.988111082215651493e+01	-4.785393104242102069e+00
8.321707926025101187e+03	-4.785965104407802428e+00	7.990610865501001570e+01	-4.785912967656456907e+00
8.321711393191048046e+03	-4.786487968109494950e+00	7.993123144175930861e+01	-4.786435559632948866e+00
8.321714860356994905e+03	-4.787013537711719557e+00	7.995647821290954482e+01	-4.786960859575478899e+00
8.321718327522941763e+03	-4.787541792500725535e+00	7.998184799400557665e+01	-4.787488846780958873e+00
8.321721794688888622e+03	-4.788072711656626623e+00	8.000733980566401726e+01	-4.788019500440070075e+00
8.321725261854835480e+03	-4.788606274254291861e+00	8.003295266361325844e+01	-4.788552799638173596e+00
8.321728729020782339e+03	-4.789142459264121854e+00	8.005868557872591396e+01	-4.789088723356080379e+00
8.321732196186729198e+03	-4.789681245552865896e+00	8.008453755705411936e+01	-4.789627250470866571e+00
8.321735663352674237e+03	-4.790222611884452419e+00	8.011050759986541436e+01	-4.790168359756704852e+00
8.321739130518621096e+03	-4.790766536920830099e+00	8.013659470367895210e+01	-4.790712029885705547e+00
8.321742597684567954e+03	-4.791312999222809843e+00	8.016279786030173682e+01	-4.791258239428752397e+00
8.321746064850514813e+03	-4.791861977250898796e+00	8.018911605686483313e+01	-4.791806966856347216e+00
8.321749532016461671e+03	-4.792413449366162759e+00	8.021554827586078318e+01	-4.792358190539465213e+00
8.321752999182408530e+03	-4.792967393831050416e+00	8.024209349517855117e+01	-4.792911888750371219e+00
8.321756466348355389e+03	-4.793523788810277075e+00	8.026875068814283054e+01	-4.793468039663521196e+00
8.321759933514302247e+03	-4.794082612371629359e+00	8.029551882354795111e+01	-4.794026621356353601e+00
8.321763400680249106e+03	-4.794643842486916441e+00	8.032239686569947423e+01	-4.794587611810235295e+00
8.321766867846195964e+03	-4.795207457032768517e+00	8.034938377444925095e+01	-4.795150988911276002e+00
8.321770335012142823e+03	-4.795773433791527651e+00	8.037647850523372028e+01	-4.795716730451209386e+00
8.321773802178089682e+03	-4.796341750452103092e+00	8.040368000911078639e+01	-4.796284814128246587e+00
8.321777269344034721e+03	-4.796912384610873659e+00	8.043098723279962314e+01	-4.796855217547978611e+00
8.321780736509981580e+03	-4.797485313772536841e+00	8.045839911871767924e+01	-4.797427918224235199e+00
8.321784203675928438e+03	-4.798060515350997868e+00	8.048591460501855011e+01	-4.798002893579959682e+00
8.321787670841875297e+03	-4.798637966670288968e+00	8.051353262563303304e+01	-4.798580120948131800e+00
8.321791138007822155e+03	-4.799217644965418472e+00	8.054125211030549281e+01	-4.799159577572619462e+00
8.321794605173769014e+03	-4.799799527383314945e+00	8.056907198463558473e+01	-4.799741240609120219e+00
8.321798072339715873e+03	-4.800383590983670956e+00	8.059699117011513181e+01	-4.800325087126011248e+00
8.321801539505662731e+03	-4.800969812739865006e+00	8.062500858416788674e+01	-4.800911094105258847e+00
8.321805006671609590e+03	-4.801558169539899446e+00	8.065312314019146811e+01	-4.801499238443367901e+00
8.321808473837556448e+03	-4.802148638187251350e+00	8.068133374759355547e+01	-4.802089496952218539e+00
8.321811941003503307e+03	-4.802741195401860175e+00	8.070963931183638351e+01	-4.802681846360067119e+00
8.321815408169450166e+03	-4.803335817820959086e+00	8.073803873447278079e+01	-4.803276263312379335e+00
8.321818875335395205e+03	-4.803932482000051074e+00	8.076653091318837596e+01	-4.803872724372785008e+00
8.321822342501342064e+03	-4.804531164413804234e+00	8.079511474184221242e+01	-4.804471206023995578e+00
8.321825809667288922e+03	-4.805131841456987019e+00	8.082378911050686554e+01	-4.805071684668728693e+00
8.321829276833235781e+03	-4.805734489445390167e+00	8.085255290550978202e+01	-4.805674136630632809e+00
8.321832743999182640e+03	-4.806339084616732649e+00	8.088140500947262979e+01	-4.806278538155189572e+00
8.321836211165129498e+03	-4.806945603131635103e+00	8.091034430135424316e+01	-4.806884865410683716e+00
8.321839678331076357e+03	-4.807554021074610162e+00	8.093936965649530180e+01	-4.807493094489201368e+00
8.321843145497023215e+03	-4.808164314454885790e+00	8.096847994665388626e+01	-4.808103201407454286e+00
8.321846612662970074e+03	-4.808776459207432019e+00	8.099767404005136484e+01	-4.808715162107800367e+00
8.321850079828916932e+03	-4.809390431193866000e+00	8.102695080141170081e+01	-4.809328952459140716e+00
8.321853546994863791e+03	-4.810006206203421009e+00	8.105630909200566236e+01	-4.809944548257913510e+00
8.321857014160810650e+03	-4.810623759953885248e+00	8.108574776969119569e+01	-4.810561925229002611e+00
8.321860481326755689e+03	-4.811243068092550423e+00	8.111526568895644118e+01	-4.811181059026708340e+00
8.321863948492702548e+03	-4.811864106197198510e+00	8.114486170096303397e+01	-4.811801925235717370e+00
8.321867415658649406e+03	-4.812486849777047659e+00	8.117453465358882170e+01	-4.812424499372066400e+00
8.321870882824596265e+03	-4.813111274273703444e+00	8.120428339146964447e+01	-4.813048756884076518e+00
8.321874349990543124e+03	-4.813737355062153611e+00	8.123410675604374376e+01	-4.813674673153351513e+00
