# time(us)	tip(nm)	Fts(nN)	Xb(nm)
8.321201719796881662e+03	-7.109385549771618074e+00	1.516212563978969854e+02	-7.109387611674464758e+00
8.321205186962828520e+03	-7.109366854284654202e+00	1.516210881968924298e+02	-7.109368566441375492e+00
8.321208654128775379e+03	-7.109351656647002748e+00	1.516211202912920726e+02	-7.109353018989110318e+00
8.321212121294722238e+03	-7.109339957467695648e+00	1.516213526794179245e+02	-7.109340969940493693e+00
8.321215588460669096e+03	-7.109331757217848491e+00	1.516217853518460856e+02	-7.109332419780432843e+00
8.321219055626615955e+03	-7.109327056230623221e+00	1.516224182914054666e+02	-7.109327368855882234e+00
8.321222522792562813e+03	-7.109325854701293856e+00	1.516232514731836716e+02	-7.109325817375907519e+00
8.321225989958509672e+03	-7.109328152687188762e+00	1.516242848645252081e+02	-7.109327765411632249e+00
8.321229457124456530e+03	-7.109333950107695976e+00	1.516255184250325385e+02	-7.109333212896238763e+00
8.321232924290403389e+03	-7.109343246744135314e+00	1.516269521065613048e+02	-7.109342159624852719e+00
8.321236391456348429e+03	-7.109356042240100315e+00	1.516285858532383486e+02	-7.109354605254837978e+00
8.321239858622295287e+03	-7.109372336101148271e+00	1.516304196014495176e+02	-7.109370549305555897e+00
8.321243325788242146e+03	-7.109392127694957431e+00	1.516324532798464872e+02	-7.109389991158471034e+00
8.321246792954189004e+03	-7.109415416251336772e+00	1.516346868093503133e+02	-7.109412930057181335e+00
8.321250260120135863e+03	-7.109442200862245542e+00	1.516371201031528813e+02	-7.109439365107428799e+00
8.321253727286082722e+03	-7.109472480481819900e+00	1.516397530667194928e+02	-7.109469295277124345e+00
8.321257194452029580e+03	-7.109506253926457298e+00	1.516425855977960566e+02	-7.109502719396445514e+00
8.321260661617976439e+03	-7.109543519874784501e+00	1.516456175864067859e+02	-7.109539636157785836e+00
8.321264128783923297e+03	-7.109584276867823682e+00	1.516488489148661358e+02	-7.109580044115934250e+00
8.321267595949870156e+03	-7.109628523308919590e+00	1.516522794577745685e+02	-7.109623941687993387e+00
8.321271063115817014e+03	-7.109676257463887872e+00	1.516559090820288702e+02	-7.109671327153532339e+00
8.321274530281763873e+03	-7.109727477461102119e+00	1.516597376468273524e+02	-7.109722198654661263e+00
8.321277997447708913e+03	-7.109782181291483205e+00	1.516637650036716991e+02	-7.109776554196050036e+00
8.321281464613655771e+03	-7.109840366808620082e+00	1.516679909963723958e+02	-7.109834391645009077e+00
8.321284931779602630e+03	-7.109902031728870142e+00	1.516724154610580229e+02	-7.109895708731622577e+00
8.321288398945549488e+03	-7.109967173631444481e+00	1.516770382261787802e+02	-7.109960503048809777e+00
8.321291866111496347e+03	-7.110035789958445207e+00	1.516818591125106650e+02	-7.110028772052372048e+00
8.321295333277443206e+03	-7.110107878015059057e+00	1.516868779331677217e+02	-7.110100513061198946e+00
8.321298800443390064e+03	-7.110183434969565397e+00	1.516920944936012745e+02	-7.110175723257237124e+00
8.321302267609336923e+03	-7.110262457853543161e+00	1.516975085916153034e+02	-7.110254399685744353e+00
8.321305734775283781e+03	-7.110344943561951681e+00	1.517031200173689740e+02	-7.110336539255325050e+00
8.321309201941230640e+03	-7.110430888853243481e+00	1.517089285533867553e+02	-7.110422138738088371e+00
8.321312669107177499e+03	-7.110520290349470862e+00	1.517149339745623706e+02	-7.110511194769713050e+00
8.321316136273124357e+03	-7.110613144536421792e+00	1.517211360481693703e+02	-7.110603703849612600e+00
8.321319603439069397e+03	-7.110709447763809088e+00	1.517275345338703119e+02	-7.110699662341093408e+00
8.321323070605016255e+03	-7.110809196245361896e+00	1.517341291837255994e+02	-7.110799066471487073e+00
8.321326537770963114e+03	-7.110912386058990897e+00	1.517409197422001341e+02	-7.110901912332268537e+00
8.321330004936909972e+03	-7.111019013146956169e+00	1.517479059461757060e+02	-7.111008195879259475e+00
8.321333472102856831e+03	-7.111129073316023508e+00	1.517550875249602598e+02	-7.111117912932773066e+00
8.321336939268803690e+03	-7.111242562237564790e+00	1.517624642002932092e+02	-7.111231059177709035e+00
8.321340406434750548e+03	-7.111359475447799561e+00	1.517700356863594777e+02	-7.111347630163789901e+00
8.321343873600697407e+03	-7.111479808347982434e+00	1.517778016898022315e+02	-7.111467621305768816e+00
8.321347340766644265e+03	-7.111603556204541654e+00	1.517857619097291604e+02	-7.111591027883539695e+00
8.321350807932591124e+03	-7.111730714149239851e+00	1.517939160377240171e+02	-7.111717845042325514e+00
8.321354275098537983e+03	-7.111861277179428953e+00	1.518022637578598051e+02	-7.111848067792913675e+00
8.321357742264484841e+03	-7.111995240158225151e+00	1.518108047467097776e+02	-7.111981691011828310e+00
8.321361209430429881e+03	-7.112132597814721180e+00	1.518195386733603414e+02	-7.112118709441563880e+00
8.321364676596376739e+03	-7.112273344744145298e+00	1.518284651994197816e+02	-7.112259117690720167e+00
8.321368143762323598e+03	-7.112417475408110867e+00	1.518375839790323880e+02	-7.112402910234261633e+00
8.321371610928270456e+03	-7.112564984134793100e+00	1.518468946588897950e+02	-7.112550081413702152e+00
8.321375078094217315e+03	-7.112715865119239034e+00	1.518563968782474944e+02	-7.112700625437383017e+00
8.321378545260164174e+03	-7.112870112423528290e+00	1.518660902689358636e+02	-7.112854536380680770e+00
8.321382012426111032e+03	-7.113027719976976471e+00	1.518759744553704252e+02	-7.113011808186170626e+00
8.321385479592057891e+03	-7.113188681576468220e+00	1.518860490545713731e+02	-7.113172434663969312e+00
8.321388946758004749e+03	-7.113352990886651739e+00	1.518963136761750832e+02	-7.113336409491939349e+00
8.321392413923951608e+03	-7.113520641440145731e+00	1.519067679224460505e+02	-7.113503726215891554e+00
8.321395881089898467e+03	-7.113691626637813847e+00	1.519174113882917538e+02	-7.113674378249851493e+00
8.321399348255845325e+03	-7.113865939749086209e+00	1.519282436612816696e+02	-7.113848358876382783e+00
8.321402815421790365e+03	-7.114043573912130825e+00	1.519392643216569354e+02	-7.114025661246765608e+00
8.321406282587737223e+03	-7.114224522134209749e+00	1.519504729423503022e+02	-7.114206278381339565e+00
8.321409749753684082e+03	-7.114408777291903796e+00	1.519618690889995776e+02	-7.114390203169746130e+00
8.321413216919630941e+03	-7.114596332131396750e+00	1.519734523199630303e+02	-7.114577428371189782e+00
8.321416684085577799e+03	-7.114787179268761363e+00	1.519852221863358466e+02	-7.114767946614746208e+00
8.321420151251524658e+03	-7.114981311190253344e+00	1.519971782319668989e+02	-7.114961750399637630e+00
8.321423618417471516e+03	-7.115178720252618660e+00	1.520093199934756569e+02	-7.115158832095546337e+00
8.321427085583418375e+03	-7.115379398683365331e+00	1.520216470002682456e+02	-7.115359183942893573e+00
8.321430552749365233e+03	-7.115583338581099149e+00	1.520341587745556353e+02	-7.115562798053161053e+00
8.321434019915312092e+03	-7.115790531915785699e+00	1.520468548313683925e+02	-7.115769666409159200e+00
8.321437487081258951e+03	-7.116000970529168690e+00	1.520597346785811510e+02	-7.115979780865446358e+00
8.321440954247205809e+03	-7.116214646134974231e+00	1.520727978169230425e+02	-7.116193133148534855e+00
8.321444421413150849e+03	-7.116431550319225252e+00	1.520860437399957164e+02	-7.116409714857198310e+00
8.321447888579097707e+03	-7.116651674540711348e+00	1.520994719342992312e+02	-7.116629517462937926e+00
8.321451355745044566e+03	-7.116875010131195722e+00	1.521130818792446746e+02	-7.116852532310203650e+00
8.321454822910991425e+03	-7.117101548295822866e+00	1.521268730471760477e+02	-7.117078750616788518e+00
8.321458290076938283e+03	-7.117331280113428527e+00	1.521408449033877730e+02	-7.117308163474140414e+00
8.321461757242885142e+03	-7.117564196536885213e+00	1.521549969061443903e+02	-7.117540761847714670e+00
8.321465224408832000e+03	-7.117800288393491215e+00	1.521693285067013619e+02	-7.117776536577347990e+00
8.321468691574778859e+03	-7.118039546385315219e+00	1.521838391493258769e+02	-7.118015478377621719e+00
8.321472158740725718e+03	-7.118281961089502730e+00	1.521985282713119432e+02	-7.118257577838152272e+00
8.321475625906672576e+03	-7.118527522958769005e+00	1.522133953030087810e+02	-7.118502825424075198e+00
8.321479093072619435e+03	-7.118776222321733016e+00	1.522284396678402061e+02	-7.118751211476414653e+00
8.321482560238566293e+03	-7.119028049383225643e+00	1.522436607823209727e+02	-7.119002726212357857e+00
8.321486027404511333e+03	-7.119282994224721328e+00	1.522590580560800220e+02	-7.119257359725693846e+00
8.321489494570458191e+03	-7.119541046804727991e+00	1.522746308918835325e+02	-7.119515101987212269e+00
8.321492961736405050e+03	-7.119802196959187590e+00	1.522903786856565205e+02	-7.119775942845093297e+00
8.321496428902351909e+03	-7.120066434401856270e+00	1.523063008265034455e+02	-7.120039872025293981e+00
8.321499896068298767e+03	-7.120333748724736012e+00	1.523223966967334775e+02	-7.120306879131977240e+00
8.321503363234245626e+03	-7.120604129398437010e+00	1.523386656718787151e+02	-7.120576953647868912e+00
8.321506830400192484e+03	-7.120877565772623541e+00	1.523551071207205325e+02	-7.120850084934707169e+00
8.321510297566139343e+03	-7.121154047076466043e+00	1.523717204053139653e+02	-7.121126262233699933e+00
8.321513764732086202e+03	-7.121433562418995500e+00	1.523885048810074352e+02	-7.121405474665869484e+00
8.321517231898033060e+03	-7.121716100789556414e+00	1.524054598964669935e+02	-7.121687711232505436e+00
8.321520699063979919e+03	-7.122001651058295302e+00	1.524225847937053402e+02	-7.121972960815663889e+00
8.321524166229926777e+03	-7.122290201976470669e+00	1.524398789080967163e+02	-7.122261212178463197e+00
8.321527633395871817e+03	-7.122581742177041875e+00	1.524573415684108397e+02	-7.122552453965680819e+00
8.321531100561818675e+03	-7.122876260174979990e+00	1.524749720968292479e+02	-7.122846674704055303e+00
8.321534567727765534e+03	-7.123173744367835347e+00	1.524927698089777834e+02	-7.123143862802868931e+00
8.321538034893712393e+03	-7.123474183036125673e+00	1.525107340139468306e+02	-7.123444006554318086e+00
8.321541502059659251e+03	-7.123777564343786395e+00	1.525288640143169800e+02	-7.123747094133977775e+00
8.321544969225606110e+03	-7.124083876338697330e+00	1.525471591061869674e+02	-7.124053113601305220e+00
8.321548436391552968e+03	-7.124393106953080590e+00	1.525656185791977748e+02	-7.124362052900077735e+00
8.321551903557499827e+03	-7.124705244004032600e+00	1.525842417165594611e+02	-7.124673899858875892e+00
8.321555370723446686e+03	-7.125020275193995722e+00	1.526030277950789298e+02	-7.124988642191587118e+00
8.321558837889393544e+03	-7.125338188111169480e+00	1.526219760851822400e+02	-7.125306267497815149e+00
8.321562305055340403e+03	-7.125658970230083433e+00	1.526410858509452453e+02	-7.125626763263429808e+00
8.321565772221287261e+03	-7.125982608912088345e+00	1.526603563501221288e+02	-7.125950116861083927e+00
8.321569239387232301e+03	-7.126309091405797602e+00	1.526797868341686240e+02	-7.126276315550635232e+00
8.321572706553179160e+03	-7.126638404847612129e+00	1.526993765482717720e+02	-7.126605346479688130e+00
8.321576173719126018e+03	-7.126970536262231093e+00	1.527191247313772351e+02	-7.126937196684089315e+00
8.321579640885072877e+03	-7.127305472563107536e+00	1.527390306162148477e+02	-7.127271853088391396e+00
8.321583108051019735e+03	-7.127643200553143821e+00	1.527590934293369287e+02	-7.127609302506530575e+00
8.321586575216966594e+03	-7.127983706924925222e+00	1.527793123911309863e+02	-7.127949531642093106e+00
8.321590042382913452e+03	-7.128326978261494418e+00	1.527996867158628902e+02	-7.128292527089061359e+00
8.321593509548860311e+03	-7.128673001036760937e+00	1.528202156116987567e+02	-7.128638275332233043e+00
8.321596976714807170e+03	-7.129021761616049169e+00	1.528408982807351322e+02	-7.128986762747760331e+00
8.321600443880754028e+03	-7.129373246256634822e+00	1.528617339190296605e+02	-7.129337975603709410e+00
8.321603911046700887e+03	-7.129727441108259178e+00	1.528827217166277137e+02	-7.129691900060545429e+00
8.321607378212647745e+03	-7.130084332213718845e+00	1.529038608575955038e+02	-7.130048522171731129e+00
8.321610845378592785e+03	-7.130443905509427971e+00	1.529251505200521422e+02	-7.130407827884298833e+00
8.321614312544539644e+03	-7.130806146825902303e+00	1.529465898761949063e+02	-7.130769803039329169e+00
8.321617779710486502e+03	-7.131171041888380024e+00	1.529681780923338295e+02	-7.131134433372559478e+00
8.321621246876433361e+03	-7.131538576317371536e+00	1.529899143289223389e+02	-7.131501704514950468e+00
8.321624714042380219e+03	-7.131908735629112428e+00	1.530117977405824661e+02	-7.131871601993144516e+00
8.321628181208327078e+03	-7.132281505236307773e+00	1.530338274761433581e+02	-7.132244111230159334e+00
8.321631648374273936e+03	-7.132656870448667696e+00	1.530560026786749006e+02	-7.132619217545993706e+00
8.321635115540220795e+03	-7.133034816473375450e+00	1.530783224855103981e+02	-7.132996906158050265e+00
8.321638582706167654e+03	-7.133415328415781964e+00	1.531007860282857393e+02	-7.133377162181838926e+00
8.321642049872114512e+03	-7.133798391279936091e+00	1.531233924329688136e+02	-7.133759970631510683e+00
8.321645517038061371e+03	-7.134183989969155704e+00	1.531461408198909737e+02	-7.134145316420433147e+00
8.321648984204008229e+03	-7.134572109286657415e+00	1.531690303037810565e+02	-7.134533184361802505e+00
8.321652451369953269e+03	-7.134962733936123236e+00	1.531920599937972440e+02	-7.134923559169229712e+00
8.321655918535900128e+03	-7.135355848522348055e+00	1.532152289935624765e+02	-7.135316425457368439e+00
8.321659385701846986e+03	-7.135751437551880905e+00	1.532385364011997524e+02	-7.135711767742565215e+00
8.321662852867793845e+03	-7.136149485433526785e+00	1.532619813093611754e+02	-7.136109570443378125e+00
8.321666320033740703e+03	-7.136549976478954171e+00	1.532855628052587349e+02	-7.136509817881152351e+00
8.321669787199687562e+03	-7.136952894903422440e+00	1.533092799707066831e+02	-7.136912494280768016e+00
8.321673254365634421e+03	-7.137358224826303221e+00	1.533331318821489901e+02	-7.137317583771153551e+00
8.321676721531581279e+03	-7.137765950271756310e+00	1.533571176106974860e+02	-7.137725070385964266e+00
8.321680188697528138e+03	-7.138176055169363821e+00	1.533812362221657963e+02	-7.138134938064207624e+00
8.321683655863474996e+03	-7.138588523354749249e+00	1.534054867771050681e+02	-7.138547170650875628e+00
8.321687123029421855e+03	-7.139003338570236501e+00	1.534298683308391844e+02	-7.138961751897596741e+00
8.321690590195368713e+03	-7.139420484465399674e+00	1.534543799334948062e+02	-7.139378665463183893e+00
8.321694057361313753e+03	-7.139839944597850874e+00	1.534790206300467617e+02	-7.139797894914432064e+00
8.321697524527260612e+03	-7.140261702433686075e+00	1.535037894603394761e+02	-7.140219423726541059e+00
8.321700991693207470e+03	-7.140685741348360871e+00	1.535286854591384156e+02	-7.140643235284012569e+00
8.321704458859154329e+03	-7.141112044627178079e+00	1.535537076561551544e+02	-7.141069312881128894e+00
8.321707926025101187e+03	-7.141540595466024044e+00	1.535788550760890416e+02	-7.141497639722693691e+00
8.321711393191048046e+03	-7.141971376971978813e+00	1.536041267386603408e+02	-7.141928198924635041e+00
8.321714860356994905e+03	-7.142404372164048887e+00	1.536295216586504466e+02	-7.142360973514736422e+00
8.321718327522941763e+03	-7.142839563973772954e+00	1.536550388459363887e+02	-7.142795946433251331e+00
8.321721794688888622e+03	-7.143276935245968851e+00	1.536806773055315603e+02	-7.143233100533644908e+00
8.321725261854835480e+03	-7.143716468739274461e+00	1.537064360376155605e+02	-7.143672418583140171e+00
8.321728729020782339e+03	-7.144158147126936420e+00	1.537323140375773960e+02	-7.144113883263488951e+00
8.321732196186729198e+03	-7.144601952997476246e+00	1.537583102960532813e+02	-7.144557477171658455e+00
8.321735663352674237e+03	-7.145047868855376016e+00	1.537844237989638430e+02	-7.145003182820502730e+00
8.321739130518621096e+03	-7.145495877121732953e+00	1.538106535275511533e+02	-7.145450982639427906e+00
8.321742597684567954e+03	-7.145945960134950425e+00	1.538369984584157919e+02	-7.145900858975070769e+00
8.321746064850514813e+03	-7.146398100151435173e+00	1.538634575635568922e+02	-7.146352794092016403e+00
8.321749532016461671e+03	-7.146852279346368242e+00	1.538900298104122726e+02	-7.146806770173518508e+00
8.321752999182408530e+03	-7.147308479814359572e+00	1.539167141618991650e+02	-7.147262769322232145e+00
8.321756466348355389e+03	-7.147766683570094592e+00	1.539435095764456207e+02	-7.147720773560792829e+00
8.321759933514302247e+03	-7.148226872549123811e+00	1.539704150080365253e+02	-7.148180764832634537e+00
8.321763400680249106e+03	-7.148689028608544049e+00	1.539974294062510580e+02	-7.148642725002668286e+00
8.321766867846195964e+03	-7.149153133527702764e+00	1.540245517163013460e+02	-7.149106635857981118e+00
8.321770335012142823e+03	-7.149619169008898822e+00	1.540517808790725951e+02	-7.149572479108552869e+00
8.321773802178089682e+03	-7.150087116678141896e+00	1.540791158311625395e+02	-7.150040236387977366e+00
8.321777269344034721e+03	-7.150556958085884318e+00	1.541065555049254101e+02	-7.150509889254239582e+00
8.321780736509981580e+03	-7.151028674707660571e+00	1.541340988285054721e+02	-7.150981419190334698e+00
8.321784203675928438e+03	-7.151502247944899970e+00	1.541617447258814479e+02	-7.151454807605056807e+00
8.321787670841875297e+03	-7.151977659125700271e+00	1.541894921169122199e+02	-7.151930035833816923e+00
8.321791138007822155e+03	-7.152454889505431623e+00	1.542173399173682924e+02	-7.152407085139220300e+00
8.321794605173769014e+03	-7.152933920267483536e+00	1.542452870389732311e+02	-7.152885936711817827e+00
8.321798072339715873e+03	-7.153414732524199238e+00	1.542733323894566126e+02	-7.153366571671027074e+00
8.321801539505662731e+03	-7.153897307317433452e+00	1.543014748725853167e+02	-7.153848971065719375e+00
8.321805006671609590e+03	-7.154381625619303797e+00	1.543297133882041408e+02	-7.154333115874949911e+00
8.321808473837556448e+03	-7.154867668333010577e+00	1.543580468322822981e+02	-7.154818987008780162e+00
8.321811941003503307e+03	-7.155355416293573967e+00	1.543864740969536911e+02	-7.155306565309007105e+00
8.321815408169450166e+03	-7.155844850268548107e+00	1.544149940705584356e+02	-7.155795831549908392e+00
8.321818875335395205e+03	-7.156335950958822245e+00	1.544436056376849820e+02	-7.156286766438997304e+00
8.321822342501342064e+03	-7.156828698999373017e+00	1.544723076792143956e+02	-7.156779350617810564e+00
8.321825809667288922e+03	-7.157323074959982989e+00	1.545010990723589543e+02	-7.157273564662614440e+00
8.321829276833235781e+03	-7.157819059346055113e+00	1.545299786907083899e+02	-7.157769389085216538e+00
8.321832743999182640e+03	-7.158316632599375673e+00	1.545589454042718671e+02	-7.158266804333730526e+00
8.321836211165129498e+03	-7.158815775098922529e+00	1.545879980795230608e+02	-7.158765790793371941e+00
8.321839678331076357e+03	-7.159316467161545461e+00	1.546171355794409124e+02	-7.159266328787189160e+00
8.321843145497023215e+03	-7.159818689042753981e+00	1.546463567635478000e+02	-7.159768398576765946e+00
8.321846612662970074e+03	-7.160322420937515808e+00	1.546756604879606414e+02	-7.160271980363110522e+00
8.321850079828916932e+03	-7.160827642981092644e+00	1.547050456054321330e+02	-7.160777054287404297e+00
8.321853546994863791e+03	-7.161334335249797789e+00	1.547345109653975612e+02	-7.161283600431826990e+00
8.321857014160810650e+03	-7.161842477761773296e+00	1.547640554140153597e+02	-7.161791598820299143e+00
8.321860481326755689e+03	-7.162352050477679200e+00	1.547936777942081790e+02	-7.162301029419204212e+00
8.321863948492702548e+03	-7.162863033301582583e+00	1.548233769457093842e+02	-7.162811872138224345e+00
8.321867415658649406e+03	-7.163375406081788910e+00	1.548531517051118271e+02	-7.163324106831199245e+00
8.321870882824596265e+03	-7.163889148611555235e+00	1.548830009059085171e+02	-7.163837713296865140e+00
8.321874349990543124e+03	-7.164404240629885123e+00	1.549129233785357087e+02	-7.164352671279615947e+00
