# time(us)	tip(nm)	Fts(nN)	Xb(nm)
8.321201719796881662e+03	-8.317751695573933901e+00	1.945762323205664472e+02	-8.317753541936735218e+00
8.321205186962828520e+03	-8.317735012843302300e+00	1.945760979304899365e+02	-8.317736535396445419e+00
8.321208654128775379e+03	-8.317721568556313727e+00	1.945761641202749104e+02	-8.317722767238610260e+00
8.321212121294722238e+03	-8.317711363254524315e+00	1.945764308869814556e+02	-8.317712238017573867e+00
8.321215588460669096e+03	-8.317704397351803891e+00	1.945768982198787000e+02	-8.317704948159963863e+00
8.321219055626615955e+03	-8.317700671134337753e+00	1.945775661004500137e+02	-8.317700897964726892e+00
8.321222522792562813e+03	-8.317700184760601800e+00	1.945784345023937476e+02	-8.317700087603133952e+00
8.321225989958509672e+03	-8.317702938261296808e+00	1.945795033916164414e+02	-8.317702517118645389e+00
8.321229457124456530e+03	-8.317708931539351980e+00	1.945807727262383935e+02	-8.317708186426969519e+00
8.321232924290403389e+03	-8.317718164370036860e+00	1.945822424565994027e+02	-8.317717095316146114e+00
8.321236391456348429e+03	-8.317730636400812116e+00	1.945839125252528845e+02	-8.317729243446416731e+00
8.321239858622295287e+03	-8.317746347151462771e+00	1.945857828669732044e+02	-8.317744630350331292e+00
8.321243325788242146e+03	-8.317765296014094645e+00	1.945878534087579510e+02	-8.317763255432753411e+00
8.321246792954189004e+03	-8.317787482253166331e+00	1.945901240698322283e+02	-8.317785117970919018e+00
8.321250260120135863e+03	-8.317812905005501634e+00	1.945925947616489395e+02	-8.317810217114409710e+00
8.321253727286082722e+03	-8.317841563280261141e+00	1.945952653878893273e+02	-8.317838551885150977e+00
8.321257194452029580e+03	-8.317873455959048812e+00	1.945981358444693115e+02	-8.317870121177497467e+00
8.321260661617976439e+03	-8.317908581795974143e+00	1.946012060195467939e+02	-8.317904923758311142e+00
8.321264128783923297e+03	-8.317946939417643293e+00	1.946044757935197538e+02	-8.317942958266938192e+00
8.321267595949870156e+03	-8.317988527323256776e+00	1.946079450390354282e+02	-8.317984223215322714e+00
8.321271063115817014e+03	-8.318033343884668085e+00	1.946116136209939782e+02	-8.318028716988045801e+00
8.321274530281763873e+03	-8.318081387346383693e+00	1.946154813965503365e+02	-8.318076437842352178e+00
8.321277997447708913e+03	-8.318132655825731803e+00	1.946195482151245812e+02	-8.318127383908283434e+00
8.321281464613655771e+03	-8.318187147312897878e+00	1.946238139184066540e+02	-8.318181553188741972e+00
8.321284931779602630e+03	-8.318244859670990365e+00	1.946282783403579515e+02	-8.318238943559512322e+00
8.321288398945549488e+03	-8.318305790636005170e+00	1.946329413072178909e+02	-8.318299552769339300e+00
8.321291866111496347e+03	-8.318369937817104542e+00	1.946378026375110153e+02	-8.318363378440025713e+00
8.321295333277443206e+03	-8.318437298696776949e+00	1.946428621420672300e+02	-8.318430418066744991e+00
8.321298800443390064e+03	-8.318507870630694967e+00	1.946481196240102065e+02	-8.318500669017844018e+00
8.321302267609336923e+03	-8.318581650847811204e+00	1.946535748787648004e+02	-8.318574128534946155e+00
8.321305734775283781e+03	-8.318658636450633637e+00	1.946592276940713191e+02	-8.318650793733169735e+00
8.321309201941230640e+03	-8.318738824415527588e+00	1.946650778500131480e+02	-8.318730661601541954e+00
8.321312669107177499e+03	-8.318822211592296512e+00	1.946711251189826726e+02	-8.318813729002464186e+00
8.321316136273124357e+03	-8.318908794704718446e+00	1.946773692657225752e+02	-8.318899992672346144e+00
8.321319603439069397e+03	-8.318998570350528254e+00	1.946838100473203212e+02	-8.318989449221508181e+00
8.321323070605016255e+03	-8.319091535001605919e+00	1.946904472132228250e+02	-8.319082095134406885e+00
8.321326537770963114e+03	-8.319187685004102661e+00	1.946972805052451747e+02	-8.319177926769766529e+00
8.321330004936909972e+03	-8.319287016578536864e+00	1.947043096575772267e+02	-8.319276940360667894e+00
8.321333472102856831e+03	-8.319389525819973485e+00	1.947115343967930414e+02	-8.319379132014692146e+00
8.321336939268803690e+03	-8.319495208698201694e+00	1.947189544418667992e+02	-8.319484497714173088e+00
8.321340406434750548e+03	-8.319604061057876976e+00	1.947265695041779452e+02	-8.319593033316253994e+00
8.321343873600697407e+03	-8.319716078618641930e+00	1.947343792875227564e+02	-8.319704734553086567e+00
8.321347340766644265e+03	-8.319831256975380285e+00	1.947423834881272171e+02	-8.319819597032008573e+00
8.321350807932591124e+03	-8.319949591598328809e+00	1.947505817946584159e+02	-8.319937616235725031e+00
8.321354275098537983e+03	-8.320071077833237183e+00	1.947589738882315658e+02	-8.320058787522420118e+00
8.321357742264484841e+03	-8.320195710901646891e+00	1.947675594424293877e+02	-8.320183106126053829e+00
8.321361209430429881e+03	-8.320323485900910754e+00	1.947763381233033044e+02	-8.320310567156374404e+00
8.321364676596376739e+03	-8.320454397804617486e+00	1.947853095894012085e+02	-8.320441165599355315e+00
8.321368143762323598e+03	-8.320588441462552609e+00	1.947944734917641370e+02	-8.320574896317150859e+00
8.321371610928270456e+03	-8.320725611601044847e+00	1.948038294739485821e+02	-8.320711754048421227e+00
8.321375078094217315e+03	-8.320865902823115334e+00	1.948133771720362688e+02	-8.320851733408506590e+00
8.321378545260164174e+03	-8.321009309608738747e+00	1.948231162146504687e+02	-8.320994828889675787e+00
8.321382012426111032e+03	-8.321155826315013826e+00	1.948330462229679938e+02	-8.321141034861312846e+00
8.321385479592057891e+03	-8.321305447176420955e+00	1.948431668107333792e+02	-8.321290345570144353e+00
8.321388946758004749e+03	-8.321458166305029991e+00	1.948534775842743727e+02	-8.321442755140479264e+00
8.321392413923951608e+03	-8.321613977690704544e+00	1.948639781425123658e+02	-8.321598257574375879e+00
8.321395881089898467e+03	-8.321772875201393305e+00	1.948746680769837951e+02	-8.321756846751979353e+00
8.321399348255845325e+03	-8.321934852583348530e+00	1.948855469718506299e+02	-8.321918516431692225e+00
8.321402815421790365e+03	-8.322099903461324999e+00	1.948966144039152084e+02	-8.322083260250408898e+00
8.321406282587737223e+03	-8.322268021338908639e+00	1.949078699426398202e+02	-8.322251071723815841e+00
8.321409749753684082e+03	-8.322439199598720805e+00	1.949193131501600931e+02	-8.322421944246629621e+00
8.321413216919630941e+03	-8.322613431502682957e+00	1.949309435813010793e+02	-8.322595871092826059e+00
8.321416684085577799e+03	-8.322790710192311536e+00	1.949427607835951335e+02	-8.322772845415949305e+00
8.321420151251524658e+03	-8.322971028688920470e+00	1.949547642972955828e+02	-8.322952860249314355e+00
8.321423618417471516e+03	-8.323154379893972887e+00	1.949669536553990952e+02	-8.323135908506371194e+00
8.321427085583418375e+03	-8.323340756589278300e+00	1.949793283836555133e+02	-8.323321982980871780e+00
8.321430552749365233e+03	-8.323530151437351421e+00	1.949918880005924962e+02	-8.323511076347246629e+00
8.321434019915312092e+03	-8.323722556981717702e+00	1.950046320175331687e+02	-8.323703181160910347e+00
8.321437487081258951e+03	-8.323917965647163797e+00	1.950175599386132603e+02	-8.323898289858517430e+00
8.321440954247205809e+03	-8.324116369740004018e+00	1.950306712607948327e+02	-8.324096394758198514e+00
8.321444421413150849e+03	-8.324317761448380537e+00	1.950439654738882780e+02	-8.324297488059915651e+00
8.321447888579097707e+03	-8.324522132842647082e+00	1.950574420605727255e+02	-8.324501561845780273e+00
8.321451355745044566e+03	-8.324729475875662033e+00	1.950711004964159656e+02	-8.324708608080383598e+00
8.321454822910991425e+03	-8.324939782383028231e+00	1.950849402498897973e+02	-8.324918618611048871e+00
8.321458290076938283e+03	-8.325153044083496212e+00	1.950989607823926804e+02	-8.325131585168186632e+00
8.321461757242885142e+03	-8.325369252579243096e+00	1.951131615482687494e+02	-8.325347499365621573e+00
8.321465224408832000e+03	-8.325588399356178115e+00	1.951275419948263732e+02	-8.325566352700874972e+00
8.321468691574778859e+03	-8.325810475784363618e+00	1.951421015623631945e+02	-8.325788136555582142e+00
8.321472158740725718e+03	-8.326035473118285068e+00	1.951568396841833533e+02	-8.326012842195771313e+00
8.321475625906672576e+03	-8.326263382497197441e+00	1.951717557866172399e+02	-8.326240460772185159e+00
8.321479093072619435e+03	-8.326494194945471605e+00	1.951868492890472737e+02	-8.326470983320698238e+00
8.321482560238566293e+03	-8.326727901373102370e+00	1.952021196039312088e+02	-8.326704400762693581e+00
8.321486027404511333e+03	-8.326964492575859467e+00	1.952175661368212900e+02	-8.326940703905380659e+00
8.321489494570458191e+03	-8.327203959235580655e+00	1.952331882863733767e+02	-8.327179883441957031e+00
8.321492961736405050e+03	-8.327446291920796995e+00	1.952489854443883530e+02	-8.327421929952260271e+00
8.321496428902351909e+03	-8.327691481087081016e+00	1.952649569958348366e+02	-8.327666833903148103e+00
8.321499896068298767e+03	-8.327939517077158627e+00	1.952811023188575064e+02	-8.327914585648638734e+00
8.321503363234245626e+03	-8.328190390121456232e+00	1.952974207848023127e+02	-8.328165175430331857e+00
8.321506830400192484e+03	-8.328444090338516403e+00	1.953139117582518338e+02	-8.328418593377966417e+00
8.321510297566139343e+03	-8.328700607735370909e+00	1.953305745970410499e+02	-8.328674829509692401e+00
8.321513764732086202e+03	-8.328959932207954608e+00	1.953474086522870721e+02	-8.328933873732546900e+00
8.321517231898033060e+03	-8.329222053541434079e+00	1.953644132684057979e+02	-8.329195715842750758e+00
8.321520699063979919e+03	-8.329486961410578871e+00	1.953815877831373484e+02	-8.329460345526097598e+00
8.321524166229926777e+03	-8.329754645380235800e+00	1.953989315275724437e+02	-8.329727752358410342e+00
8.321527633395871817e+03	-8.330025094905757044e+00	1.954164438261797159e+02	-8.329997925805969317e+00
8.321531100561818675e+03	-8.330298299333378509e+00	1.954341239968283901e+02	-8.330270855225903048e+00
8.321534567727765534e+03	-8.330574247900660367e+00	1.954519713508150858e+02	-8.330546529866611039e+00
8.321538034893712393e+03	-8.330852929736920487e+00	1.954699851928918974e+02	-8.330824938868236273e+00
8.321541502059659251e+03	-8.331134333863603914e+00	1.954881648212851815e+02	-8.331106071262976087e+00
8.321544969225606110e+03	-8.331418449194744724e+00	1.955065095277270757e+02	-8.331389915975590199e+00
8.321548436391552968e+03	-8.331705264537438538e+00	1.955250185974821875e+02	-8.331676461823850133e+00
8.321551903557499827e+03	-8.331994768592219103e+00	1.955436913093710416e+02	-8.331965697518922909e+00
8.321555370723446686e+03	-8.332286949953516597e+00	1.955625269357986724e+02	-8.332257611665836450e+00
8.321558837889393544e+03	-8.332581797110076849e+00	1.955815247427782140e+02	-8.332552192763875709e+00
8.321562305055340403e+03	-8.332879298445554639e+00	1.956006839899679903e+02	-8.332849429207186631e+00
8.321565772221287261e+03	-8.333179442238824564e+00	1.956200039306913254e+02	-8.333149309285106554e+00
8.321569239387232301e+03	-8.333482216664449993e+00	1.956394838119634585e+02	-8.333451821182604746e+00
8.321572706553179160e+03	-8.333787609793221307e+00	1.956591228745237174e+02	-8.333756952980820643e+00
8.321576173719126018e+03	-8.334095609592612419e+00	1.956789203528656174e+02	-8.334064692657550566e+00
8.321579640885072877e+03	-8.334406203927249734e+00	1.956988754752628097e+02	-8.334375028087674053e+00
8.321583108051019735e+03	-8.334719380559375779e+00	1.957189874637993796e+02	-8.334687947043663669e+00
8.321586575216966594e+03	-8.335035127149277301e+00	1.957392555343933793e+02	-8.335003437195966924e+00
8.321590042382913452e+03	-8.335353431255780876e+00	1.957596788968287171e+02	-8.335321486113540956e+00
8.321593509548860311e+03	-8.335674280336835551e+00	1.957802567547892636e+02	-8.335642081264403203e+00
8.321596976714807170e+03	-8.335997661749960486e+00	1.958009883058859941e+02	-8.335965210016084370e+00
8.321600443880754028e+03	-8.336323562752765426e+00	1.958218727416896172e+02	-8.336290859636168449e+00
8.321603911046700887e+03	-8.336651970503337949e+00	1.958429092477538518e+02	-8.336619017292672851e+00
8.321607378212647745e+03	-8.336982872060907823e+00	1.958640970036538533e+02	-8.336949670054689676e+00
8.321610845378592785e+03	-8.337316254386072600e+00	1.958854351830024143e+02	-8.337282804892661048e+00
8.321614312544539644e+03	-8.337652104341586323e+00	1.959069229534941599e+02	-8.337618408679091431e+00
8.321617779710486502e+03	-8.337990408693077171e+00	1.959285594769509942e+02	-8.337956468189288373e+00
8.321621246876433361e+03	-8.338331154109189569e+00	1.959503439093354871e+02	-8.338296970101605865e+00
8.321624714042380219e+03	-8.338674327162149069e+00	1.959722754007768231e+02	-8.338639900997870669e+00
8.321628181208327078e+03	-8.339019914328350325e+00	1.959943530956098812e+02	-8.338985247364030684e+00
8.321631648374273936e+03	-8.339367901988877563e+00	1.960165761324077494e+02	-8.339332995590680753e+00
8.321635115540220795e+03	-8.339718276430057031e+00	1.960389436440140116e+02	-8.339683131973599117e+00
8.321638582706167654e+03	-8.340071023844014775e+00	1.960614547575756035e+02	-8.340035642714305197e+00
8.321642049872114512e+03	-8.340426130329218424e+00	1.960841085945780549e+02	-8.340390513920613813e+00
8.321645517038061371e+03	-8.340783581890976350e+00	1.961069042708733150e+02	-8.340747731607121906e+00
8.321648984204008229e+03	-8.341143364442020314e+00	1.961298408967159048e+02	-8.341107281695785858e+00
8.321652451369953269e+03	-8.341505463803025933e+00	1.961529175767952324e+02	-8.341469150016479261e+00
8.321655918535900128e+03	-8.341869865703255726e+00	1.961761334102720014e+02	-8.341833322307566689e+00
8.321659385701846986e+03	-8.342236555781052942e+00	1.961994874908108955e+02	-8.342199784216461467e+00
8.321662852867793845e+03	-8.342605519584452622e+00	1.962229789066155945e+02	-8.342568521300199436e+00
8.321666320033740703e+03	-8.342976742571682536e+00	1.962466067404612886e+02	-8.342939519025973638e+00
8.321669787199687562e+03	-8.343350210111722731e+00	1.962703700697253737e+02	-8.343312762771656566e+00
8.321673254365634421e+03	-8.343725907485001869e+00	1.962942679664315051e+02	-8.343688237826505372e+00
8.321676721531581279e+03	-8.344103819883883943e+00	1.963182994972795541e+02	-8.344065929391673464e+00
8.321680188697528138e+03	-8.344483932413233163e+00	1.963424637236780939e+02	-8.344445822580739858e+00
8.321683655863474996e+03	-8.344866230091096071e+00	1.963667597017854121e+02	-8.344827902420393073e+00
8.321687123029421855e+03	-8.345250697849232679e+00	1.963911864825465443e+02	-8.345212153851027992e+00
8.321690590195368713e+03	-8.345637320533688452e+00	1.964157431117197916e+02	-8.345598561727205933e+00
8.321694057361313753e+03	-8.346026082905346755e+00	1.964404286299175055e+02	-8.345987110818315458e+00
8.321697524527260612e+03	-8.346416969640610972e+00	1.964652420726425532e+02	-8.346377785809183436e+00
8.321700991693207470e+03	-8.346809965332010250e+00	1.964901824703260047e+02	-8.346770571300680785e+00
8.321704458859154329e+03	-8.347205054488792797e+00	1.965152488483651894e+02	-8.347165451810369063e+00
8.321707926025101187e+03	-8.347602221537526290e+00	1.965404402271583422e+02	-8.347562411773056468e+00
8.321711393191048046e+03	-8.348001450822676972e+00	1.965657556221393065e+02	-8.347961435541391140e+00
8.321714860356994905e+03	-8.348402726607270452e+00	1.965911940438184899e+02	-8.348362507386516640e+00
8.321718327522941763e+03	-8.348806033073575605e+00	1.966167544978223418e+02	-8.348765611498736305e+00
8.321721794688888622e+03	-8.349211354323546885e+00	1.966424359849247310e+02	-8.349170731988028393e+00
8.321725261854835480e+03	-8.349618674379586380e+00	1.966682375010869350e+02	-8.349577852884703333e+00
8.321728729020782339e+03	-8.350027977185115802e+00	1.966941580374971466e+02	-8.349986958140068083e+00
8.321732196186729198e+03	-8.350439246605285248e+00	1.967201965806100077e+02	-8.350398031627058515e+00
8.321735663352674237e+03	-8.350852466427561183e+00	1.967463521121852068e+02	-8.350811057140887783e+00
8.321739130518621096e+03	-8.351267620362374799e+00	1.967726236093251089e+02	-8.351226018399668050e+00
8.321742597684567954e+03	-8.351684692043674474e+00	1.967990100445075257e+02	-8.351642899044950497e+00
8.321746064850514813e+03	-8.352103665029668278e+00	1.968255103856335495e+02	-8.352061682642510476e+00
8.321749532016461671e+03	-8.352524522803387086e+00	1.968521235960562308e+02	-8.352482352682834232e+00
8.321752999182408530e+03	-8.352947248773544331e+00	1.968788486346398940e+02	-8.352904892582071028e+00
8.321756466348355389e+03	-8.353371826274877066e+00	1.969056844557755142e+02	-8.353329285682310257e+00
8.321759933514302247e+03	-8.353798238569115853e+00	1.969326300094404019e+02	-8.353755515252554886e+00
8.321763400680249106e+03	-8.354226468845370235e+00	1.969596842412239823e+02	-8.354183564489146008e+00
8.321766867846195964e+03	-8.354656500220963622e+00	1.969868460923761972e+02	-8.354613416516567526e+00
8.321770335012142823e+03	-8.355088315742030147e+00	1.970141144998428899e+02	-8.355045054388019921e+00
8.321773802178089682e+03	-8.355521898384225210e+00	1.970414883963121611e+02	-8.355478461086194741e+00
8.321777269344034721e+03	-8.355957231053322332e+00	1.970689667102481621e+02	-8.355913619523819946e+00
8.321780736509981580e+03	-8.356394296585936132e+00	1.970965483659351491e+02	-8.356350512544388209e+00
8.321784203675928438e+03	-8.356833077750222216e+00	1.971242322835204277e+02	-8.356789122922881674e+00
8.321787670841875297e+03	-8.357273557246488238e+00	1.971520173790515571e+02	-8.357229433366351046e+00
8.321791138007822155e+03	-8.357715717707892011e+00	1.971799025645190113e+02	-8.357671426514649227e+00
8.321794605173769014e+03	-8.358159541701201789e+00	1.972078867479010853e+02	-8.358115084941150741e+00
8.321798072339715873e+03	-8.358605011727471279e+00	1.972359688332043959e+02	-8.358560391153421421e+00
8.321801539505662731e+03	-8.359052110222725318e+00	1.972641477205122555e+02	-8.359007327594015990e+00
8.321805006671609590e+03	-8.359500819558322249e+00	1.972924223059958138e+02	-8.359455876640677019e+00
8.321808473837556448e+03	-8.359951122042147631e+00	1.973207914819938367e+02	-8.359906020607624555e+00
8.321811941003503307e+03	-8.360402999919104516e+00	1.973492541370415552e+02	-8.360357741746033966e+00
8.321815408169450166e+03	-8.360856435371781359e+00	1.973778091559094605e+02	-8.360811022244682533e+00
8.321818875335395205e+03	-8.361311410521176768e+00	1.974064554196494043e+02	-8.361265844230697297e+00
8.321822342501342064e+03	-8.361767907427424262e+00	1.974351918056376860e+02	-8.361722189770274483e+00
8.321825809667288922e+03	-8.362225908090463733e+00	1.974640171876160650e+02	-8.362180040869338526e+00
8.321829276833235781e+03	-8.362685394450744880e+00	1.974929304357339674e+02	-8.362639379474254397e+00
8.321832743999182640e+03	-8.363146348390010587e+00	1.975219304165972289e+02	-8.363100187472605640e+00
8.321836211165129498e+03	-8.363608751731923974e+00	1.975510159933057537e+02	-8.363562446693830310e+00
8.321839678331076357e+03	-8.364072586242823348e+00	1.975801860254989606e+02	-8.364026138909958163e+00
8.321843145497023215e+03	-8.364537833632450514e+00	1.976094393694017413e+02	-8.364491245836370936e+00
8.321846612662970074e+03	-8.365004475554846053e+00	1.976387748778766138e+02	-8.364957749132635456e+00
8.321850079828916932e+03	-8.365472493608589133e+00	1.976681914004440159e+02	-8.365425630402869572e+00
8.321853546994863791e+03	-8.365941869337913062e+00	1.976976877833400863e+02	-8.365894871196683624e+00
8.321857014160810650e+03	-8.366412584233342997e+00	1.977272628695645835e+02	-8.366365453009942499e+00
8.321860481326755689e+03	-8.366884619732481099e+00	1.977569154989253093e+02	-8.366837357285506371e+00
8.321863948492702548e+03	-8.367357957220679765e+00	1.977866445080809683e+02	-8.367310565413939472e+00
8.321867415658649406e+03	-8.367832578031716650e+00	1.978164487305793386e+02	-8.367785058734126480e+00
8.321870882824596265e+03	-8.368308463448581591e+00	1.978463269969074361e+02	-8.368260818534103862e+00
8.321874349990543124e+03	-8.368785594704245767e+00	1.978762781345382393e+02	-8.368737826051813045e+00
