# time(us)	tip(nm)	Fts(nN)	Xb(nm)
8.321201719796881662e+03	5.218594762558120159e+00	-1.036039180699228381e-02	-2.551982425242569352e-01
8.321205186962828520e+03	5.234495170323956614e+00	-1.030267077449705838e-02	-2.551535679852698357e-01
8.321208654128775379e+03	5.250281169725822039e+00	-1.024584080344665901e-02	-2.551090986001427474e-01
8.321212121294722238e+03	5.265952070784829075e+00	-1.018988889369428982e-02	-2.550648327254130265e-01
8.321215588460669096e+03	5.281507187612954901e+00	-1.013480231868227853e-02	-2.550207687348201024e-01
8.321219055626615955e+03	5.296945838462092659e+00	-1.008056861927454986e-02	-2.549769050190794917e-01
8.321222522792562813e+03	5.312267345773038940e+00	-1.002717559775740536e-02	-2.549332399856614195e-01
8.321225989958509672e+03	5.327471036224445733e+00	-9.974611312003729691e-03	-2.548897720585730498e-01
8.321229457124456530e+03	5.342556240781719978e+00	-9.922864069795530456e-03	-2.548464996781443781e-01
8.321232924290403389e+03	5.357522294745851177e+00	-9.871922423300327071e-03	-2.548034213008180671e-01
8.321236391456348429e+03	5.372368537802164390e+00	-9.821775163696771019e-03	-2.547605353989428334e-01
8.321239858622295287e+03	5.387094314068993306e+00	-9.772411315945040908e-03	-2.547178404605701663e-01
8.321243325788242146e+03	5.401698972146260935e+00	-9.723820133697887169e-03	-2.546753349892551532e-01
8.321246792954189004e+03	5.416181865163949283e+00	-9.675991094348215110e-03	-2.546330175038592492e-01
8.321250260120135863e+03	5.430542350830478426e+00	-9.628913894209081142e-03	-2.545908865383586517e-01
8.321253727286082722e+03	5.444779791480946152e+00	-9.582578443822547740e-03	-2.545489406416530098e-01
8.321257194452029580e+03	5.458893554125245018e+00	-9.536974863393436752e-03	-2.545071783773802943e-01
8.321260661617976439e+03	5.472883010496062184e+00	-9.492093478344506424e-03	-2.544655983237320007e-01
8.321264128783923297e+03	5.486747537096682059e+00	-9.447924814989686754e-03	-2.544241990732735159e-01
8.321267595949870156e+03	5.500486515248690367e+00	-9.404459596321787518e-03	-2.543829792327656492e-01
8.321271063115817014e+03	5.514099331139477478e+00	-9.361688737911662284e-03	-2.543419374229909935e-01
8.321274530281763873e+03	5.527585375869580986e+00	-9.319603343915539365e-03	-2.543010722785810085e-01
8.321277997447708913e+03	5.540944045499846204e+00	-9.278194703187544676e-03	-2.542603824478470442e-01
8.321281464613655771e+03	5.554174741098381496e+00	-9.237454285494569803e-03	-2.542198665926144185e-01
8.321284931779602630e+03	5.567276868787335076e+00	-9.197373737830387072e-03	-2.541795233880577709e-01
8.321288398945549488e+03	5.580249839789440003e+00	-9.157944880826584741e-03	-2.541393515225401911e-01
8.321291866111496347e+03	5.593093070474342454e+00	-9.119159705257446139e-03	-2.540993496974544019e-01
8.321295333277443206e+03	5.605805982404713284e+00	-9.081010368636236590e-03	-2.540595166270662175e-01
8.321298800443390064e+03	5.618388002382125990e+00	-9.043489191900408800e-03	-2.540198510383610553e-01
8.321302267609336923e+03	5.630838562492670896e+00	-9.006588656183383071e-03	-2.539803516708913911e-01
8.321305734775283781e+03	5.643157100152331296e+00	-8.970301399670454687e-03	-2.539410172766289886e-01
8.321309201941230640e+03	5.655343058152072722e+00	-8.934620214536644414e-03	-2.539018466198164625e-01
8.321312669107177499e+03	5.667395884702675524e+00	-8.899538043964342823e-03	-2.538628384768232271e-01
8.321316136273124357e+03	5.679315033479287678e+00	-8.865047979238434295e-03	-2.538239916360030546e-01
8.321319603439069397e+03	5.691099963665674721e+00	-8.831143256917068848e-03	-2.537853048975526882e-01
8.321323070605016255e+03	5.702750139998200574e+00	-8.797817256075916859e-03	-2.537467770733742856e-01
8.321326537770963114e+03	5.714265032809446865e+00	-8.765063495624159789e-03	-2.537084069869388059e-01
8.321330004936909972e+03	5.725644118071551603e+00	-8.732875631690201201e-03	-2.536701934731512287e-01
8.321333472102856831e+03	5.736886877439227206e+00	-8.701247455075344223e-03	-2.536321353782184929e-01
8.321336939268803690e+03	5.747992798292422378e+00	-8.670172888773627906e-03	-2.535942315595192120e-01
8.321340406434750548e+03	5.758961373778659798e+00	-8.639645985556295912e-03	-2.535564808854740559e-01
8.321343873600697407e+03	5.769792102854999882e+00	-8.609660925619037897e-03	-2.535188822354200733e-01
8.321347340766644265e+03	5.780484490329661718e+00	-8.580212014290575923e-03	-2.534814344994850699e-01
8.321350807932591124e+03	5.791038046903274505e+00	-8.551293679800961792e-03	-2.534441365784645406e-01
8.321354275098537983e+03	5.801452289209747093e+00	-8.522900471108112511e-03	-2.534069873837001552e-01
8.321357742264484841e+03	5.811726739856752033e+00	-8.495027055781189176e-03	-2.533699858369599101e-01
8.321361209430429881e+03	5.821860927465810853e+00	-8.467668217939343031e-03	-2.533331308703203333e-01
8.321364676596376739e+03	5.831854386712000959e+00	-8.440818856244482540e-03	-2.532964214260494673e-01
8.321368143762323598e+03	5.841706658363222004e+00	-8.414473981946814229e-03	-2.532598564564924049e-01
8.321371610928270456e+03	5.851417289319052806e+00	-8.388628716981812866e-03	-2.532234349239582683e-01
8.321375078094217315e+03	5.860985832649208582e+00	-8.363278292117380663e-03	-2.531871558006075218e-01
8.321378545260164174e+03	5.870411847631519464e+00	-8.338418045150069666e-03	-2.531510180683427813e-01
8.321382012426111032e+03	5.879694899789504881e+00	-8.314043419149142605e-03	-2.531150207186995682e-01
8.321385479592057891e+03	5.888834560929470996e+00	-8.290149960747365473e-03	-2.530791627527392840e-01
8.321388946758004749e+03	5.897830409177178268e+00	-8.266733318477431994e-03	-2.530434431809432394e-01
8.321392413923951608e+03	5.906682029014032054e+00	-8.243789241153020794e-03	-2.530078610231080161e-01
8.321395881089898467e+03	5.915389011312788270e+00	-8.221313576293371589e-03	-2.529724153082434368e-01
8.321399348255845325e+03	5.923950953372782102e+00	-8.199302268590556372e-03	-2.529371050744696481e-01
8.321402815421790365e+03	5.932367458954700190e+00	-8.177751358418227853e-03	-2.529019293689177550e-01
8.321406282587737223e+03	5.940638138314832339e+00	-8.156656980381116542e-03	-2.528668872476305673e-01
8.321409749753684082e+03	5.948762608238807204e+00	-8.136015361904450766e-03	-2.528319777754647335e-01
8.321413216919630941e+03	5.956740492074849236e+00	-8.115822821862114789e-03	-2.527972000259945395e-01
8.321416684085577799e+03	5.964571419766512506e+00	-8.096075769243040246e-03	-2.527625530814169297e-01
8.321420151251524658e+03	5.972255027884878942e+00	-8.076770701854783102e-03	-2.527280360324568043e-01
8.321423618417471516e+03	5.979790959660251204e+00	-8.057904205063611339e-03	-2.526936479782753153e-01
8.321427085583418375e+03	5.987178865013273565e+00	-8.039472950570378251e-03	-2.526593880263777736e-01
8.321430552749365233e+03	5.994418400585554529e+00	-8.021473695221228994e-03	-2.526252552925233319e-01
8.321434019915312092e+03	6.001509229769714793e+00	-8.003903279852703223e-03	-2.525912489006357786e-01
8.321437487081258951e+03	6.008451022738867664e+00	-7.986758628170383817e-03	-2.525573679827156637e-01
8.321440954247205809e+03	6.015243456475575456e+00	-7.970036745660376981e-03	-2.525236116787529794e-01
8.321444421413150849e+03	6.021886214800201031e+00	-7.953734718533167491e-03	-2.524899791366417290e-01
8.321447888579097707e+03	6.028378988398705118e+00	-7.937849712698993865e-03	-2.524564695120944946e-01
8.321451355745044566e+03	6.034721474849888523e+00	-7.922378972774287223e-03	-2.524230819685596150e-01
8.321454822910991425e+03	6.040913378651990406e+00	-7.907319821118568431e-03	-2.523898156771373635e-01
8.321458290076938283e+03	6.046954411248766093e+00	-7.892669656901182482e-03	-2.523566698164994571e-01
8.321461757242885142e+03	6.052844291054892523e+00	-7.878425955197455519e-03	-2.523236435728073435e-01
8.321465224408832000e+03	6.058582743480828370e+00	-7.864586266113565011e-03	-2.522907361396333203e-01
8.321468691574778859e+03	6.064169500957061310e+00	-7.851148213939722342e-03	-2.522579467178813206e-01
8.321472158740725718e+03	6.069604302957711361e+00	-7.838109496331220269e-03	-2.522252745157095299e-01
8.321475625906672576e+03	6.074886896023564020e+00	-7.825467883516727674e-03	-2.521927187484536148e-01
8.321479093072619435e+03	6.080017033784444358e+00	-7.813221217533557542e-03	-2.521602786385503392e-01
8.321482560238566293e+03	6.084994476980976508e+00	-7.801367411489300123e-03	-2.521279534154632906e-01
8.321486027404511333e+03	6.089818993485725862e+00	-7.789904448849540274e-03	-2.520957423156087174e-01
8.321489494570458191e+03	6.094490358323690238e+00	-7.778830382751123797e-03	-2.520636445822819760e-01
8.321492961736405050e+03	6.099008353692152440e+00	-7.768143335340728199e-03	-2.520316594655859777e-01
8.321496428902351909e+03	6.103372768979871132e+00	-7.757841497138270349e-03	-2.519997862223590790e-01
8.321499896068298767e+03	6.107583400785689065e+00	-7.747923126424716492e-03	-2.519680241161052492e-01
8.321503363234245626e+03	6.111640052936419210e+00	-7.738386548654115071e-03	-2.519363724169237373e-01
8.321506830400192484e+03	6.115542536504091409e+00	-7.729230155889484609e-03	-2.519048304014405160e-01
8.321510297566139343e+03	6.119290669822561313e+00	-7.720452406262144629e-03	-2.518733973527402803e-01
8.321513764732086202e+03	6.122884278503452293e+00	-7.712051823454189534e-03	-2.518420725602992793e-01
8.321517231898033060e+03	6.126323195451402803e+00	-7.704026996204017819e-03	-2.518108553199183697e-01
8.321520699063979919e+03	6.129607260878692898e+00	-7.696376577834354582e-03	-2.517797449336581783e-01
8.321524166229926777e+03	6.132736322319150446e+00	-7.689099285802712680e-03	-2.517487407097733221e-01
8.321527633395871817e+03	6.135710234641428507e+00	-7.682193901273952526e-03	-2.517178419626488473e-01
8.321531100561818675e+03	6.138528860061536641e+00	-7.675659268714806090e-03	-2.516870480127364473e-01
8.321534567727765534e+03	6.141192068154753159e+00	-7.669494295509979125e-03	-2.516563581864922905e-01
8.321538034893712393e+03	6.143699735866859690e+00	-7.663697951599666817e-03	-2.516257718163145141e-01
8.321541502059659251e+03	6.146051747524622577e+00	-7.658269269138473327e-03	-2.515952882404824953e-01
8.321544969225606110e+03	6.148247994845684516e+00	-7.653207342175169688e-03	-2.515649068030961222e-01
8.321548436391552968e+03	6.150288376947681712e+00	-7.648511326353558092e-03	-2.515346268540157859e-01
8.321551903557499827e+03	6.152172800356678017e+00	-7.644180438634020150e-03	-2.515044477488036501e-01
8.321555370723446686e+03	6.153901179014949818e+00	-7.640213957035542694e-03	-2.514743688486651974e-01
8.321558837889393544e+03	6.155473434288073697e+00	-7.636611220398196835e-03	-2.514443895203908319e-01
8.321562305055340403e+03	6.156889494971260923e+00	-7.633371628166012168e-03	-2.514145091362998685e-01
8.321565772221287261e+03	6.158149297295062219e+00	-7.630494640189943410e-03	-2.513847270741825235e-01
8.321569239387232301e+03	6.159252784930322022e+00	-7.627979776550952024e-03	-2.513550427172457913e-01
8.321572706553179160e+03	6.160199908992474604e+00	-7.625826617403080529e-03	-2.513254554540571561e-01
8.321576173719126018e+03	6.160990628045126982e+00	-7.624034802836339095e-03	-2.512959646784901357e-01
8.321579640885072877e+03	6.161624908102912634e+00	-7.622604032759587415e-03	-2.512665697896707684e-01
8.321583108051019735e+03	6.162102722633687080e+00	-7.621534066803005089e-03	-2.512372701919239892e-01
8.321586575216966594e+03	6.162424052559980048e+00	-7.620824724240391618e-03	-2.512080652947207282e-01
8.321590042382913452e+03	6.162588886259776189e+00	-7.620475883931070518e-03	-2.511789545126262846e-01
8.321593509548860311e+03	6.162597219566589679e+00	-7.620487484281446115e-03	-2.511499372652479800e-01
8.321596976714807170e+03	6.162449055768839834e+00	-7.620859523226146230e-03	-2.511210129771851984e-01
8.321600443880754028e+03	6.162144405608500186e+00	-7.621592058228847909e-03	-2.510921810779779273e-01
8.321603911046700887e+03	6.161683287279070775e+00	-7.622685206302651749e-03	-2.510634410020578522e-01
8.321607378212647745e+03	6.161065726422847000e+00	-7.624139144050099369e-03	-2.510347921886981193e-01
8.321610845378592785e+03	6.160291756127482365e+00	-7.625954107722825344e-03	-2.510062340819653737e-01
8.321614312544539644e+03	6.159361416921865562e+00	-7.628130393300871365e-03	-2.509777661306711316e-01
8.321617779710486502e+03	6.158274756771275449e+00	-7.630668356591779715e-03	-2.509493877883245405e-01
8.321621246876433361e+03	6.157031831071854810e+00	-7.633568413349432237e-03	-2.509210985130844729e-01
8.321624714042380219e+03	6.155632702644396659e+00	-7.636831039412691167e-03	-2.508928977677137850e-01
8.321628181208327078e+03	6.154077441727419995e+00	-7.640456770864055211e-03	-2.508647850195323548e-01
8.321631648374273936e+03	6.152366125969574107e+00	-7.644446204208200750e-03	-2.508367597403722837e-01
8.321635115540220795e+03	6.150498840421353641e+00	-7.648799996570705695e-03	-2.508088214065322119e-01
8.321638582706167654e+03	6.148475677526064942e+00	-7.653518865917048782e-03	-2.507809694987332416e-01
8.321642049872114512e+03	6.146296737110185759e+00	-7.658603591291852225e-03	-2.507532035020740846e-01
8.321645517038061371e+03	6.143962126373031296e+00	-7.664055013078559415e-03	-2.507255229059882073e-01
8.321648984204008229e+03	6.141471959875682174e+00	-7.669874033279863376e-03	-2.506979272042003659e-01
8.321652451369953269e+03	6.138826359529275578e+00	-7.676061615818821800e-03	-2.506704158946836403e-01
8.321655918535900128e+03	6.136025454582628491e+00	-7.682618786860918869e-03	-2.506429884796175789e-01
8.321659385701846986e+03	6.133069381609176141e+00	-7.689546635157198766e-03	-2.506156444653465099e-01
8.321662852867793845e+03	6.129958284493219445e+00	-7.696846312408816074e-03	-2.505883833623379631e-01
8.321666320033740703e+03	6.126692314415533858e+00	-7.704519033653005680e-03	-2.505612046851419250e-01
8.321669787199687562e+03	6.123271629838309416e+00	-7.712566077670810448e-03	-2.505341079523503156e-01
8.321673254365634421e+03	6.119696396489414880e+00	-7.720988787416759210e-03	-2.505070926865573533e-01
8.321676721531581279e+03	6.115966787346025946e+00	-7.729788570470735344e-03	-2.504801584143197535e-01
8.321680188697528138e+03	6.112082982617581095e+00	-7.738966899512293544e-03	-2.504533046661178153e-01
8.321683655863474996e+03	6.108045169728115731e+00	-7.748525312817657225e-03	-2.504265309763161196e-01
8.321687123029421855e+03	6.103853543297912410e+00	-7.758465414779805100e-03	-2.503998368831263366e-01
8.321690590195368713e+03	6.099508305124542673e+00	-7.768788876451726728e-03	-2.503732219285683680e-01
8.321694057361313753e+03	6.095009664163272056e+00	-7.779497436113306727e-03	-2.503466856584332101e-01
8.321697524527260612e+03	6.090357836506802514e+00	-7.790592899862163780e-03	-2.503202276222464273e-01
8.321700991693207470e+03	6.085553045364413549e+00	-7.802077142228730673e-03	-2.502938473732307378e-01
8.321704458859154329e+03	6.080595521040473628e+00	-7.813952106815860721e-03	-2.502675444682703199e-01
8.321707926025101187e+03	6.075485500912348513e+00	-7.826219806963456704e-03	-2.502413184678742852e-01
8.321711393191048046e+03	6.070223229407666565e+00	-7.838882326438418105e-03	-2.502151689361422071e-01
8.321714860356994905e+03	6.064808957980992510e+00	-7.851941820150360254e-03	-2.501890954407278711e-01
8.321718327522941763e+03	6.059242945089901689e+00	-7.865400514893457554e-03	-2.501630975528053580e-01
8.321721794688888622e+03	6.053525456170437913e+00	-7.879260710114847910e-03	-2.501371748470346268e-01
8.321725261854835480e+03	6.047656763612006436e+00	-7.893524778710081513e-03	-2.501113269015270424e-01
8.321728729020782339e+03	6.041637146731673624e+00	-7.908195167846011203e-03	-2.500855532978122353e-01
8.321732196186729198e+03	6.035466891747861773e+00	-7.923274399811688212e-03	-2.500598536208042955e-01
8.321735663352674237e+03	6.029146291753485265e+00	-7.938765072897714312e-03	-2.500342274587694091e-01
8.321739130518621096e+03	6.022675646688540496e+00	-7.954669862304490982e-03	-2.500086744032934405e-01
8.321742597684567954e+03	6.016055263312111379e+00	-7.970991521079997047e-03	-2.499831940492487081e-01
8.321746064850514813e+03	6.009285455173797530e+00	-7.987732881087691514e-03	-2.499577859947632041e-01
8.321749532016461671e+03	6.002366542584617548e+00	-8.004896854004982243e-03	-2.499324498411881479e-01
8.321752999182408530e+03	5.995298852587369609e+00	-8.022486432352914434e-03	-2.499071851930676214e-01
8.321756466348355389e+03	5.988082718926440506e+00	-8.040504690557670475e-03	-2.498819916581070943e-01
8.321759933514302247e+03	5.980718482017081783e+00	-8.058954786044599319e-03	-2.498568688471428934e-01
8.321763400680249106e+03	5.973206488914184931e+00	-8.077839960365299291e-03	-2.498318163741127806e-01
8.321766867846195964e+03	5.965547093280514801e+00	-8.097163540358503706e-03	-2.498068338560245072e-01
8.321770335012142823e+03	5.957740655354437642e+00	-8.116928939345511781e-03	-2.497819209129278628e-01
8.321773802178089682e+03	5.949787541917160638e+00	-8.137139658360778918e-03	-2.497570771678841173e-01
8.321777269344034721e+03	5.941688126259454528e+00	-8.157799287418488615e-03	-2.497323022469379317e-01
8.321780736509981580e+03	5.933442788147888614e+00	-8.178911506815976853e-03	-2.497075957790881318e-01
8.321784203675928438e+03	5.925051913790602143e+00	-8.200480088474515483e-03	-2.496829573962593973e-01
8.321787670841875297e+03	5.916515895802564984e+00	-8.222508897318660248e-03	-2.496583867332749229e-01
8.321791138007822155e+03	5.907835133170427078e+00	-8.245001892694628354e-03	-2.496338834278273300e-01
8.321794605173769014e+03	5.899010031216836758e+00	-8.267963129828996213e-03	-2.496094471204522713e-01
8.321798072339715873e+03	5.890041001564376266e+00	-8.291396761328210033e-03	-2.495850774545007311e-01
8.321801539505662731e+03	5.880928462099005216e+00	-8.315307038720180788e-03	-2.495607740761123516e-01
8.321805006671609590e+03	5.871672836933081285e+00	-8.339698314038775442e-03	-2.495365366341885938e-01
8.321808473837556448e+03	5.862274556367953693e+00	-8.364575041452259122e-03	-2.495123647803664246e-01
8.321811941003503307e+03	5.852734056856143674e+00	-8.389941778936626723e-03	-2.494882581689924772e-01
8.321815408169450166e+03	5.843051780963091524e+00	-8.415803189995046951e-03	-2.494642164570969878e-01
8.321818875335395205e+03	5.833228177328511954e+00	-8.442164045424449190e-03	-2.494402393043682054e-01
8.321822342501342064e+03	5.823263700627363093e+00	-8.469029225130301000e-03	-2.494163263731273283e-01
8.321825809667288922e+03	5.813158811530396264e+00	-8.496403719990920644e-03	-2.493924773283034413e-01
8.321829276833235781e+03	5.802913976664354045e+00	-8.524292633772448738e-03	-2.493686918374088957e-01
8.321832743999182640e+03	5.792529668571785528e+00	-8.552701185095646502e-03	-2.493449695705142743e-01
8.321836211165129498e+03	5.782006365670494752e+00	-8.581634709456057580e-03	-2.493213102002249659e-01
8.321839678331076357e+03	5.771344552212634760e+00	-8.611098661298598536e-03	-2.492977134016565455e-01
8.321843145497023215e+03	5.760544718243463258e+00	-8.641098616148088982e-03	-2.492741788524112656e-01
8.321846612662970074e+03	5.749607359559752773e+00	-8.671640272797173296e-03	-2.492507062325545197e-01
8.321850079828916932e+03	5.738532977667851753e+00	-8.702729455553078960e-03	-2.492272952245919160e-01
8.321853546994863791e+03	5.727322079741476557e+00	-8.734372116544578471e-03	-2.492039455134458237e-01
8.321857014160810650e+03	5.715975178579149052e+00	-8.766574338090979759e-03	-2.491806567864325861e-01
8.321860481326755689e+03	5.704492792561327796e+00	-8.799342335134586676e-03	-2.491574287332405935e-01
8.321863948492702548e+03	5.692875445607264773e+00	-8.832682457738331300e-03	-2.491342610459074403e-01
8.321867415658649406e+03	5.681123667131567245e+00	-8.866601193650333612e-03	-2.491111534187977761e-01
8.321870882824596265e+03	5.669237992000486948e+00	-8.901105170937095509e-03	-2.490881055485821560e-01
8.321874349990543124e+03	5.657218960487927717e+00	-8.936201160687273770e-03	-2.490651171342143921e-01
