# time(us)	tip(nm)	Fts(nN)	Xb(nm)
1.630436968467206498e+04	2.341059554810530017e+02	-5.685598809465574681e-06	-7.848423340484955268e+00
1.630439152781741905e+04	2.355479925138507156e+02	-5.618510978688881186e-06	-7.847674889548748922e+00
1.630441337096277493e+04	2.369895457951404580e+02	-5.552625364280356996e-06	-7.846929050823989726e+00
1.630443486739153741e+04	2.384076924722201056e+02	-5.488933788819541050e-06	-7.846197579142742740e+00
1.630445671053689148e+04	2.398481246240381779e+02	-5.425356492261069012e-06	-7.845456856595945716e+00
1.630447855368224737e+04	2.412879079201316586e+02	-5.362905204622119194e-06	-7.844718679580285681e+00
1.630450005011100802e+04	2.427041478151164142e+02	-5.302521113541823562e-06	-7.843994683812980817e+00
1.630452189325636391e+04	2.441424710776318250e+02	-5.242233189594920769e-06	-7.843261493461198164e+00
1.630454373640171798e+04	2.455799689314015666e+02	-5.183001229516268574e-06	-7.842530784735836313e+00
1.630456523283048045e+04	2.469937835972057485e+02	-5.125718851098823959e-06	-7.841814077193209442e+00
1.630458707597583634e+04	2.484294599516825883e+02	-5.068516915447936750e-06	-7.841088230972097506e+00
1.630460891912119041e+04	2.498641233248104072e+02	-5.012306449618561325e-06	-7.840364805096463385e+00
1.630463076226654630e+04	2.512977086442807604e+02	-4.957066980703730657e-06	-7.839643779592543993e+00
1.630465225869530695e+04	2.527074219801158108e+02	-4.903632966008723899e-06	-7.838936523327240558e+00
1.630467410184066284e+04	2.541386719205481199e+02	-4.850261559954201210e-06	-7.838220202404471593e+00
1.630469594498601691e+04	2.555686442257968736e+02	-4.797803168132789877e-06	-7.837506223854727949e+00
1.630471744141477939e+04	2.569746048318731368e+02	-4.747050917132194293e-06	-7.836805846825816602e+00
1.630473928456013527e+04	2.584018393779191456e+02	-4.696349876869177263e-06	-7.836096460094319482e+00
1.630476112770548934e+04	2.598275910056931366e+02	-4.646508124823047236e-06	-7.835389360041216555e+00
1.630478262413425182e+04	2.612291964022594470e+02	-4.598279805690782466e-06	-7.834695698673578512e+00
1.630480446727960589e+04	2.626518000022162482e+02	-4.550092656462015287e-06	-7.833993082123247298e+00
1.630482631042496178e+04	2.640727132515780795e+02	-4.502714851352734885e-06	-7.833292698737350790e+00
1.630484815357031584e+04	2.654918668211571458e+02	-4.456130425489568241e-06	-7.832594531050424358e+00
1.630486964999907832e+04	2.668867091295044816e+02	-4.411044871289205449e-06	-7.831909591872231680e+00
1.630489149314443421e+04	2.683021674603092492e+02	-4.365988762759431844e-06	-7.831215769598829368e+00
1.630491333628978828e+04	2.697156617323262253e+02	-4.321680499961254646e-06	-7.830524112242257750e+00
1.630493483271855075e+04	2.711047367744566259e+02	-4.278791502961533482e-06	-7.829845531112714418e+00
1.630495667586390482e+04	2.725141359697192343e+02	-4.235924162505197289e-06	-7.829158120339629434e+00
1.630497851900926071e+04	2.739213731746141320e+02	-4.193762039758605697e-06	-7.828472825621792808e+00
1.630500001543802318e+04	2.753040999864315950e+02	-4.152944382229349347e-06	-7.827800459035297642e+00
1.630502185858337725e+04	2.767068581010195771e+02	-4.112141268004336989e-06	-7.827119315780532993e+00
1.630504370172873314e+04	2.781072656155564573e+02	-4.072003376300292349e-06	-7.826440241539537546e+00
1.630506554487408721e+04	2.795052617781094000e+02	-4.032517854383681048e-06	-7.825763220938969589e+00
1.630508704130284968e+04	2.808786555576064643e+02	-3.994283779831984296e-06	-7.825098936954343998e+00
1.630510888444820375e+04	2.822716926466526957e+02	-3.956055625594872490e-06	-7.824425946270259224e+00
1.630513072759355964e+04	2.836621450240974127e+02	-3.918443034096389466e-06	-7.823754964468889739e+00
1.630515222402232212e+04	2.850279494360393642e+02	-3.882016957893838137e-06	-7.823096580264394362e+00
1.630517406716767618e+04	2.864131107451261755e+02	-3.845590921567411773e-06	-7.822429541188602009e+00
1.630519591031303207e+04	2.877955259982556981e+02	-3.809745847140788418e-06	-7.821764467846001878e+00
1.630521740674179273e+04	2.891532671216572794e+02	-3.775026142804028267e-06	-7.821111856692988695e+00
1.630523924988714862e+04	2.905300825823537707e+02	-3.740301069292505426e-06	-7.820450641993539342e+00
1.630526109303250269e+04	2.919040018216030035e+02	-3.706124450153220152e-06	-7.819791351404043134e+00
1.630528293617785857e+04	2.932749767089443935e+02	-3.672485844645156081e-06	-7.819133971304172981e+00
1.630530443260662105e+04	2.946212696455722835e+02	-3.639896532555044380e-06	-7.818488877978801987e+00
1.630532627575197512e+04	2.959862636974430643e+02	-3.607295377633165837e-06	-7.817835248836794371e+00
1.630534811889733101e+04	2.973481749696296106e+02	-3.575202392715109981e-06	-7.817183490479563623e+00
1.630536961532609166e+04	2.986854151026889213e+02	-3.544105661175329652e-06	-7.816543891346268147e+00
1.630539145847144755e+04	3.000410769044832477e+02	-3.512992828070820320e-06	-7.815895806525242406e+00
1.630541330161680162e+04	3.013935228283384617e+02	-3.482360237295725852e-06	-7.815249554137461807e+00
1.630543479804556409e+04	3.027213189002181366e+02	-3.452674062610037924e-06	-7.814615336559760372e+00
1.630545664119091998e+04	3.040672538920899228e+02	-3.422968063502357843e-06	-7.813972682904384293e+00
1.630547848433627405e+04	3.054098417545205280e+02	-3.393716231356986182e-06	-7.813331824617103294e+00
1.630550032748162994e+04	3.067490382968546214e+02	-3.364910230858849706e-06	-7.812692749553851179e+00
1.630552182391039059e+04	3.080636235259569276e+02	-3.336988837542462811e-06	-7.812065547867098836e+00
1.630554366705574648e+04	3.093959590648073572e+02	-3.309043521469056992e-06	-7.811429975523771496e+00
1.630556551020110055e+04	3.107247690507324478e+02	-3.281520326307823721e-06	-7.810796150959204986e+00
1.630558700662986303e+04	3.120289999459495220e+02	-3.254838782152133069e-06	-7.810174082202856027e+00
1.630560884977521891e+04	3.133506774426912216e+02	-3.228130908464451829e-06	-7.809543691178611802e+00
1.630563069292057298e+04	3.146686893782527932e+02	-3.201823120522516839e-06	-7.808915013632789837e+00
1.630565218934933546e+04	3.159621545331476682e+02	-3.176316703002102873e-06	-7.808297977069054596e+00
1.630567403249468953e+04	3.172727486800045540e+02	-3.150782104752706362e-06	-7.807672666100544667e+00
1.630569587564004541e+04	3.185795293209357055e+02	-3.125627135313422149e-06	-7.807049035400232206e+00
1.630571771878539948e+04	3.198824448774024063e+02	-3.100845273477277478e-06	-7.806427074073951644e+00
1.630573921521416196e+04	3.211608545951171436e+02	-3.076814867635839847e-06	-7.805816604518104995e+00
1.630576105835951785e+04	3.224559445628312346e+02	-3.052754618823811683e-06	-7.805197923639595636e+00
1.630578290150487192e+04	3.237470093907556361e+02	-3.029048952175123895e-06	-7.804580880300355794e+00
1.630580439793363439e+04	3.250135972931037713e+02	-3.006060009805420328e-06	-7.803975219909530914e+00
1.630582624107898846e+04	3.262965101318114876e+02	-2.983040518620077121e-06	-7.803361394830493403e+00
1.630584808422434435e+04	3.275752291160255822e+02	-2.960358385087674460e-06	-7.802749176430107347e+00
1.630586958065310682e+04	3.288294999076232443e+02	-2.938360307633806601e-06	-7.802148234569237673e+00
1.630589142379846089e+04	3.300997247100019081e+02	-2.916331363169388679e-06	-7.801539174129105803e+00
1.630591326694381678e+04	3.313655799270662783e+02	-2.894623720975142720e-06	-7.800931690436176957e+00
1.630593511008917085e+04	3.326270055346438426e+02	-2.873232239210626206e-06	-7.800325773660632400e+00
1.630595660651793332e+04	3.338640251529487841e+02	-2.852484091786863750e-06	-7.799730994967478459e+00
1.630597844966328739e+04	3.351164827854904047e+02	-2.831705124136200235e-06	-7.799128158438280778e+00
1.630600029280864328e+04	3.363643299378550751e+02	-2.811227617200629063e-06	-7.798526860069832090e+00
1.630602178923740576e+04	3.375878096978968301e+02	-2.791364881529242755e-06	-7.797936598675666353e+00
1.630604363238275982e+04	3.388263293480166567e+02	-2.771471611740766836e-06	-7.797338324332371506e+00
1.630606547552811571e+04	3.400600578021117713e+02	-2.751865972873242778e-06	-7.796741560227021139e+00
1.630608697195687637e+04	3.412694673890433137e+02	-2.732848022107528544e-06	-7.796155734125258974e+00
1.630610881510223226e+04	3.424935127936427648e+02	-2.713799955889502448e-06	-7.795561939441085109e+00
1.630613065824758633e+04	3.437125901471548559e+02	-2.695026449543241771e-06	-7.794969627868837847e+00
1.630615250139294221e+04	3.449266416743305967e+02	-2.676523275607092187e-06	-7.794378790490524622e+00
1.630617399782170469e+04	3.461164605606869600e+02	-2.658573696338722258e-06	-7.793798762183875795e+00
1.630619584096705876e+04	3.473203730349483749e+02	-2.640594658817679516e-06	-7.793210823722397151e+00
1.630621768411241464e+04	3.485190933867016838e+02	-2.622873751639855129e-06	-7.792624333338495468e+00
1.630623918054117530e+04	3.496936654705720002e+02	-2.605682300544153078e-06	-7.792048557765678396e+00
1.630626102368653119e+04	3.508819273834009778e+02	-2.588461896081557548e-06	-7.791464915199891372e+00
1.630628286683188526e+04	3.520648420313171414e+02	-2.571487988338476391e-06	-7.790882695313519513e+00
1.630630436326064773e+04	3.532237118852861499e+02	-2.555020495081601474e-06	-7.790311097882927527e+00
1.630632620640600362e+04	3.543958727931862995e+02	-2.538524532233908120e-06	-7.789731676110199565e+00
1.630634804955135769e+04	3.555625441766891299e+02	-2.522263953010769151e-06	-7.789153652306334941e+00
1.630636989269671358e+04	3.567236813811252887e+02	-2.506235144287307476e-06	-7.788577018339408298e+00
1.630639138912547423e+04	3.578609428229346463e+02	-2.490683586252063133e-06	-7.788010886386471654e+00
1.630641323227083012e+04	3.590109732388001476e+02	-2.475104156913779212e-06	-7.787436986244089532e+00
1.630643507541618419e+04	3.601553451009859828e+02	-2.459746038328010823e-06	-7.786864452101355916e+00
1.630645657184494667e+04	3.612759900735417773e+02	-2.444844468571345562e-06	-7.786302331828741430e+00
1.630647841499030255e+04	3.624090209731037362e+02	-2.429915451293856540e-06	-7.785732484837724954e+00
1.630650025813565662e+04	3.635362812868772835e+02	-2.415197764080762172e-06	-7.785163980631649494e+00
1.630652175456441910e+04	3.646399805467543160e+02	-2.400916872220052771e-06	-7.784605803860602080e+00
1.630654359770977317e+04	3.657556883222356987e+02	-2.386608960983251562e-06	-7.784039941343264601e+00
1.630656544085512905e+04	3.668655236951231018e+02	-2.372502882469454268e-06	-7.783475398993392247e+00
1.630658728400048312e+04	3.679694543301757790e+02	-2.358595564004134963e-06	-7.782912169361120291e+00
1.630660878042924560e+04	3.690500666270314696e+02	-2.345100119471619802e-06	-7.782359154336011997e+00
1.630663062357460149e+04	3.701421883588585047e+02	-2.331578290376149188e-06	-7.781798507496042738e+00
1.630665246671995556e+04	3.712283124162706827e+02	-2.318246386968760068e-06	-7.781239151516428088e+00
1.630667396314871803e+04	3.722913112515248031e+02	-2.305308763924831971e-06	-7.780689927496978520e+00
1.630669580629407210e+04	3.733654452806925974e+02	-2.292345326104807140e-06	-7.780133111485811881e+00
1.630671764943942799e+04	3.744334911751255959e+02	-2.279563490861731582e-06	-7.779577565020983521e+00
1.630673914586819046e+04	3.754786104923366565e+02	-2.267159247274003461e-06	-7.779032069410766859e+00
1.630676098901354453e+04	3.765344865027524861e+02	-2.254729877954977183e-06	-7.778479021147209238e+00
1.630678283215890042e+04	3.775841827619831292e+02	-2.242474307835833261e-06	-7.777927221638115007e+00
1.630680467530425449e+04	3.786276677251194087e+02	-2.230390038655259534e-06	-7.777376664029288733e+00
1.630682617173301696e+04	3.796484940211944945e+02	-2.218662457452906514e-06	-7.776836051315178189e+00
1.630684801487837103e+04	3.806795591119832807e+02	-2.206910904221172747e-06	-7.776287937720872456e+00
1.630686985802372692e+04	3.817043147889637567e+02	-2.195323542228554507e-06	-7.775741045901138904e+00
1.630689135445248940e+04	3.827066110235465999e+02	-2.184078206127809130e-06	-7.775204021297167145e+00
1.630691319759784346e+04	3.837187450157949797e+02	-2.172809959735870033e-06	-7.774659534037318132e+00
1.630693504074319935e+04	3.847244639029595419e+02	-2.161699301077727866e-06	-7.774116248903440329e+00
1.630695653717196001e+04	3.857079195608823738e+02	-2.150916814590781158e-06	-7.773582754704507991e+00
1.630697838031731590e+04	3.867007985299973711e+02	-2.140112654382387528e-06	-7.773041835604840522e+00
1.630700022346266996e+04	3.876871479806763432e+02	-2.129459960812799818e-06	-7.772502099442041512e+00
1.630702206660802585e+04	3.886669275935236669e+02	-2.118956784885341598e-06	-7.771963539885572203e+00
1.630704356303678833e+04	3.896247008305004442e+02	-2.108764457074966822e-06	-7.771434671533192784e+00
1.630706540618214240e+04	3.905913219876869675e+02	-2.098552363793590466e-06	-7.770898427964366917e+00
1.630708724932749828e+04	3.915512475240734034e+02	-2.088484256105929151e-06	-7.770363342400316675e+00
1.630710874575625894e+04	3.924893565870296470e+02	-2.078714821566657817e-06	-7.769837874875539008e+00
1.630713058890161483e+04	3.934358668842921816e+02	-2.068927217092382655e-06	-7.769305068813068260e+00
1.630715243204696890e+04	3.943755489797580367e+02	-2.059278455429331151e-06	-7.768773402575589238e+00
1.630717392847573137e+04	3.952936047908087289e+02	-2.049916805584051166e-06	-7.768251282487160125e+00
1.630719577162108726e+04	3.962196037402874254e+02	-2.040538690959552532e-06	-7.767721860087193342e+00
1.630721761476644133e+04	3.971386376818771851e+02	-2.031294615425783119e-06	-7.767193559739398623e+00
1.630723945791179722e+04	3.980506603809404282e+02	-2.022183036054866316e-06	-7.766666375576566139e+00
1.630726095434055787e+04	3.989413164596938941e+02	-2.013343974049941821e-06	-7.766148643510285332e+00
1.630728279748591376e+04	3.998392913148766183e+02	-2.004490833611359717e-06	-7.765623656801539987e+00
1.630730464063126783e+04	4.007301176397146492e+02	-1.995765758081925134e-06	-7.765099769026480914e+00
1.630732613706003031e+04	4.015997806196911597e+02	-1.987302815976707082e-06	-7.764585264305162049e+00
1.630734798020538619e+04	4.024762897312853624e+02	-1.978827617867587608e-06	-7.764063540130536012e+00
1.630736982335074026e+04	4.033455168775813036e+02	-1.970476275835122010e-06	-7.763542898013531257e+00
1.630739131977950274e+04	4.041937952669256902e+02	-1.962377088784360501e-06	-7.763031571074873405e+00
1.630741316292485681e+04	4.050484469669670489e+02	-1.954267461024158746e-06	-7.762513059436563445e+00
1.630743500607021269e+04	4.058956905535347346e+02	-1.946277661386408033e-06	-7.761995613342526745e+00
1.630745684921556676e+04	4.067354859060533272e+02	-1.938406374571071287e-06	-7.761479227338085707e+00
1.630747834564432924e+04	4.075546415723674158e+02	-1.930774472566948314e-06	-7.760972067660169671e+00
1.630750018878968513e+04	4.083795448408068864e+02	-1.923134496875625438e-06	-7.760457769012583107e+00
1.630752203193503919e+04	4.091968877829634721e+02	-1.915609198556747174e-06	-7.759944514407068006e+00
1.630754352836380167e+04	4.099938419565906429e+02	-1.908314089500094793e-06	-7.759440420866348553e+00
1.630756537150915574e+04	4.107960826469853828e+02	-1.901012615489966642e-06	-7.758929222112929125e+00
1.630758721465451163e+04	4.115906634986812946e+02	-1.893822104760215573e-06	-7.758419051689893209e+00
1.630760871108327410e+04	4.123651239908903108e+02	-1.886852880476607072e-06	-7.757917978143755278e+00
1.630763055422862817e+04	4.131444181489032417e+02	-1.879878938442099352e-06	-7.757409832723762833e+00
1.630765239737398406e+04	4.139159660431050156e+02	-1.873012359703158415e-06	-7.756902700247679583e+00
1.630767424051933813e+04	4.146797415542416729e+02	-1.866251963663172110e-06	-7.756396575630394530e+00
1.630769573694810060e+04	4.154237812769065954e+02	-1.859701409859954315e-06	-7.755899463821759987e+00
1.630771758009345467e+04	4.161720632996426730e+02	-1.853148251899461642e-06	-7.755395324007391622e+00
1.630773942323881056e+04	4.169125027240633585e+02	-1.846697835225992328e-06	-7.754892177083895000e+00
1.630776091966757303e+04	4.176335116844284130e+02	-1.840449022366679232e-06	-7.754397981190045641e+00
1.630778276281292710e+04	4.183583285890245520e+02	-1.834199144746120848e-06	-7.753896789673200729e+00
1.630780460595828299e+04	4.190752424697460583e+02	-1.828048700972891836e-06	-7.753396576381643257e+00
1.630782610238704365e+04	4.197730428904615678e+02	-1.822091917975481151e-06	-7.752905253332315283e+00
1.630784794553239954e+04	4.204742218643625620e+02	-1.816135598038583014e-06	-7.752406966641959052e+00
1.630786978867775360e+04	4.211674442269985548e+02	-1.810275557426053772e-06	-7.751909643804606453e+00
1.630789163182310949e+04	4.218526929574851465e+02	-1.804510776906110067e-06	-7.751413280068097933e+00
1.630791312825187197e+04	4.225192636440596630e+02	-1.798929534672790256e-06	-7.750925726922559100e+00
1.630793497139722604e+04	4.231886421214915117e+02	-1.793350825578174396e-06	-7.750431252219565970e+00
1.630795681454258192e+04	4.238499971035816429e+02	-1.787864458905895061e-06	-7.749937722623310599e+00
1.630797831097134258e+04	4.244930045644723577e+02	-1.782554425867390585e-06	-7.749452945058901143e+00
1.630800015411669847e+04	4.251383897924731059e+02	-1.777248536183498881e-06	-7.748961277003326487e+00
1.630802199726205254e+04	4.257757003393717810e+02	-1.772032271219162574e-06	-7.748470540334047918e+00
1.630804349369081501e+04	4.263949939153640116e+02	-1.766985467707395215e-06	-7.747988498056339601e+00
1.630806533683617090e+04	4.270162293706750916e+02	-1.761944497609381304e-06	-7.747499595970156250e+00
1.630808717998152497e+04	4.276293345298066697e+02	-1.756990648872461121e-06	-7.747011611815771026e+00
1.630810902312688086e+04	4.282342893273024060e+02	-1.752123132105397767e-06	-7.746524541142665754e+00
1.630813051955564151e+04	4.288216640409910383e+02	-1.747416422476560275e-06	-7.746046089302586424e+00
1.630815236270099740e+04	4.294103847492831960e+02	-1.742717960952898290e-06	-7.745560818029628258e+00
1.630817420584635147e+04	4.299908900648554209e+02	-1.738103624693535910e-06	-7.745076447126931996e+00
1.630819570227511394e+04	4.305541372326803753e+02	-1.733643994576158310e-06	-7.744600639485043736e+00
1.630821754542046983e+04	4.311182712564840926e+02	-1.729194554544066670e-06	-7.744118042217135844e+00
1.630823938856582390e+04	4.316741165345524678e+02	-1.724827252506994699e-06	-7.743636332457485061e+00
1.630826088499458638e+04	4.322130207609995978e+02	-1.720608864493557477e-06	-7.743163131240471841e+00
1.630828272813994045e+04	4.327523409918125026e+02	-1.716402725233546070e-06	-7.742683169837615509e+00
1.630830457128529633e+04	4.332832910286992387e+02	-1.712276944412596852e-06	-7.742204083323328767e+00
1.630832641443065040e+04	4.338058419787996627e+02	-1.708230968980411951e-06	-7.741725867521757287e+00
1.630834791085941288e+04	4.343118695851027837e+02	-1.704326613244709735e-06	-7.741256088508330357e+00
1.630836975400476877e+04	4.348176675595645975e+02	-1.700437423467113227e-06	-7.740779588051899474e+00
1.630839159715012283e+04	4.353149765576184791e+02	-1.696626505566629142e-06	-7.740303946001989566e+00
1.630841309357888531e+04	4.357960737195396632e+02	-1.692952032169360414e-06	-7.739836687947038385e+00
1.630843493672423938e+04	4.362764474604979910e+02	-1.689295015886453743e-06	-7.739362737052408292e+00
1.630845677986959527e+04	4.367482390675905890e+02	-1.685714891445625230e-06	-7.738889632485771664e+00
1.630847827629835774e+04	4.372041325730843369e+02	-1.682266244292062382e-06	-7.738424859916929854e+00
1.630850011944371181e+04	4.376588034055348544e+02	-1.678837412603757355e-06	-7.737953422761563615e+00
1.630852196258906770e+04	4.381047990626703950e+02	-1.675484216236931433e-06	-7.737482820077477008e+00
1.630854380573442177e+04	4.385420890326993231e+02	-1.672206256431233461e-06	-7.737013047940049404e+00
1.630856530216318424e+04	4.389639093039220938e+02	-1.669053404207372082e-06	-7.736551539591454585e+00
1.630858714530853831e+04	4.393838381223264378e+02	-1.665923578475763994e-06	-7.736083403839844053e+00
