# time(us)	tip(nm)	Fts(nN)	Xb(nm)
1.630437173592529507e+04	1.278001554029073930e+02	-1.239575190109074251e-05	-3.601328557581724255e+01
1.630439347505572005e+04	1.280877795657280842e+02	-1.235268419847715735e-05	-3.601104686891013529e+01
1.630441521418614684e+04	1.283730666135750766e+02	-1.231018921711152338e-05	-3.600881236007633390e+01
1.630443695331657364e+04	1.286559888889175625e+02	-1.226826408562528224e-05	-3.600658202897536597e+01
1.630445869244700043e+04	1.289365149833899125e+02	-1.222690653789707151e-05	-3.600435585539778316e+01
1.630448043157742541e+04	1.292146098197877677e+02	-1.218611488808407723e-05	-3.600213381926381828e+01
1.630450217070785220e+04	1.294902347734955015e+02	-1.214588800083817693e-05	-3.599991590062244029e+01
1.630452390983827900e+04	1.297633478321383791e+02	-1.210622525704678910e-05	-3.599770207964998292e+01
1.630454564896870579e+04	1.300339037917943585e+02	-1.206712651548742573e-05	-3.599549233664896519e+01
1.630456738809913077e+04	1.303018544876658780e+02	-1.202859207082881385e-05	-3.599328665204721034e+01
1.630458912722955756e+04	1.305671490566986108e+02	-1.199062260845010725e-05	-3.599108500639630392e+01
1.630461086635998436e+04	1.308297342292544840e+02	-1.195321915658171745e-05	-3.598888738037080515e+01
1.630463260549041115e+04	1.310895546465994244e+02	-1.191638303629746086e-05	-3.598669375476706023e+01
1.630465434462083795e+04	1.313465532006604519e+02	-1.188011580990664717e-05	-3.598450411050207265e+01
1.630467608375126292e+04	1.316006713922411109e+02	-1.184441922830784938e-05	-3.598231842861245156e+01
1.630469782288168972e+04	1.318518497036686483e+02	-1.180929517787155236e-05	-3.598013669025338146e+01
1.630471956201211651e+04	1.321000279816744012e+02	-1.177474562741856358e-05	-3.597795887669754222e+01
1.630474130114254331e+04	1.323451458261918390e+02	-1.174077257585372073e-05	-3.597578496933415693e+01
1.630476304027296828e+04	1.325871429806918229e+02	-1.170737800100053792e-05	-3.597361494966794737e+01
1.630478477940339508e+04	1.328259597196566801e+02	-1.167456381016362623e-05	-3.597144879931805406e+01
1.630480651853382187e+04	1.330615372288409901e+02	-1.164233179291965292e-05	-3.596928650001719063e+01
1.630482825766424867e+04	1.332938179740534679e+02	-1.161068357660773364e-05	-3.596712803361057809e+01
1.630484999679467364e+04	1.335227460543425764e+02	-1.157962058495451738e-05	-3.596497338205500682e+01
1.630487173592510044e+04	1.337482675356587549e+02	-1.154914400022965227e-05	-3.596282252741792718e+01
1.630489347505552723e+04	1.339703307613102652e+02	-1.151925472928394702e-05	-3.596067545187647596e+01
1.630491521418595403e+04	1.341888866358109169e+02	-1.148995337377565121e-05	-3.595853213771657408e+01
1.630493695331637900e+04	1.344038888790492194e+02	-1.146124020484112764e-05	-3.595639256733200995e+01
1.630495869244680580e+04	1.346152942480656804e+02	-1.143311514241416855e-05	-3.595425672322354416e+01
1.630498043157723259e+04	1.348230627241264585e+02	-1.140557773934568637e-05	-3.595212458799802135e+01
1.630500217070765939e+04	1.350271576631985795e+02	-1.137862717042104047e-05	-3.594999614436756019e+01
1.630502390983808436e+04	1.352275459083815292e+02	-1.135226222631802245e-05	-3.594787137514853725e+01
1.630504564896851116e+04	1.354241978633118038e+02	-1.132648131249404284e-05	-3.594575026326090494e+01
1.630506738809893795e+04	1.356170875260290529e+02	-1.130128245293762480e-05	-3.594363279172726777e+01
1.630508912722936475e+04	1.358061924832722411e+02	-1.127666329866716849e-05	-3.594151894367207944e+01
1.630511086635978972e+04	1.359914938656548316e+02	-1.125262114080900930e-05	-3.593940870232071916e+01
1.630513260549021652e+04	1.361729762646383506e+02	-1.122915292803879021e-05	-3.593730205099888764e+01
1.630515434462064331e+04	1.363506276126870773e+02	-1.120625528812450811e-05	-3.593519897313166922e+01
1.630517608375107011e+04	1.365244390284268263e+02	-1.118392455326724927e-05	-3.593309945224267210e+01
1.630519782288149690e+04	1.366944046290552990e+02	-1.116215678889651322e-05	-3.593100347195342437e+01
1.630521956201192188e+04	1.368605213126386388e+02	-1.114094782554245142e-05	-3.592891101598251424e+01
1.630524130114234868e+04	1.370227885132935626e+02	-1.112029329337644112e-05	-3.592682206814482271e+01
1.630526304027277547e+04	1.371812079325732725e+02	-1.110018865898522572e-05	-3.592473661235077032e+01
1.630528477940320226e+04	1.373357832506575846e+02	-1.108062926392282652e-05	-3.592265463260563507e+01
1.630530651853362724e+04	1.374865198211838617e+02	-1.106161036456805080e-05	-3.592057611300873532e+01
1.630532825766405404e+04	1.376334243537467898e+02	-1.104312717280409778e-05	-3.591850103775280445e+01
1.630534999679448083e+04	1.377765045882306367e+02	-1.102517489703144505e-05	-3.591642939112306721e+01
1.630537173592490763e+04	1.379157689652301713e+02	-1.100774878302440314e-05	-3.591436115749684888e+01
1.630539347505533260e+04	1.380512262968483981e+02	-1.099084415414708277e-05	-3.591229632134258765e+01
1.630541521418575940e+04	1.381828854421451069e+02	-1.097445645045451271e-05	-3.591023486721937275e+01
1.630543695331618619e+04	1.383107549914386993e+02	-1.095858126622046659e-05	-3.590817677977603495e+01
1.630545869244661299e+04	1.384348429635441278e+02	-1.094321438545398307e-05	-3.590612204375062788e+01
1.630548043157703796e+04	1.385551565198579169e+02	-1.092835181499218915e-05	-3.590407064396973880e+01
1.630550217070746476e+04	1.386717016989792910e+02	-1.091398981478707289e-05	-3.590202256534778513e+01
1.630552390983789155e+04	1.387844831752954917e+02	-1.090012492503832203e-05	-3.589997779288644608e+01
1.630554564896831835e+04	1.388935040446491200e+02	-1.088675398986205376e-05	-3.589793631167382415e+01
1.630556738809874332e+04	1.389987656398640183e+02	-1.087387417722733434e-05	-3.589589810688406146e+01
1.630558912722917012e+04	1.391002673785207833e+02	-1.086148299493684474e-05	-3.589386316377655106e+01
1.630561086635959691e+04	1.391980066449709170e+02	-1.084957830247493701e-05	-3.589183146769529742e+01
1.630563260549002371e+04	1.392919787081410732e+02	-1.083815831859521814e-05	-3.588980300406844748e+01
1.630565434462044868e+04	1.393821766762294203e+02	-1.082722162457020390e-05	-3.588777775840746642e+01
1.630567608375087548e+04	1.394685914889291496e+02	-1.081676716307625237e-05	-3.588575571630677530e+01
1.630569782288130227e+04	1.395512119473397945e+02	-1.080679423273858548e-05	-3.588373686344296232e+01
1.630571956201172907e+04	1.396300247812555426e+02	-1.079730247841104374e-05	-3.588172118557424994e+01
1.630574130114215404e+04	1.397050147530442530e+02	-1.078829187731558645e-05	-3.587970866853994778e+01
1.630576304027258084e+04	1.397761647968703755e+02	-1.077976272121402520e-05	-3.587769929825982729e+01
1.630578477940300763e+04	1.398434561915695156e+02	-1.077171559483033894e-05	-3.587569306073358888e+01
1.630580651853343443e+04	1.399068687650548100e+02	-1.076415135078503111e-05	-3.587368994204028638e+01
1.630582825766386122e+04	1.399663811277370087e+02	-1.075707108134269970e-05	-3.587168992833769465e+01
1.630584999679428620e+04	1.400219709320706158e+02	-1.075047608731036473e-05	-3.586969300586193299e+01
1.630587173592471299e+04	1.400736151550048305e+02	-1.074436784445608640e-05	-3.586769916092666222e+01
1.630589347505513979e+04	1.401212903998236925e+02	-1.073874796784557629e-05	-3.586570837992281469e+01
1.630591521418556658e+04	1.401649732136106650e+02	-1.073361817451720265e-05	-3.586372064931789794e+01
1.630593695331599156e+04	1.402046404163658622e+02	-1.072898024493458314e-05	-3.586173595565539074e+01
1.630595869244641835e+04	1.402402694376497720e+02	-1.072483598366891969e-05	-3.585975428555443756e+01
1.630598043157684515e+04	1.402718386565215383e+02	-1.072118717977151247e-05	-3.585777562570915222e+01
1.630600217070727194e+04	1.402993277404861203e+02	-1.071803556729984763e-05	-3.585579996288817739e+01
1.630602390983769692e+04	1.403227179791638832e+02	-1.071538278645849211e-05	-3.585382728393415164e+01
1.630604564896812371e+04	1.403419926084479528e+02	-1.071323034580872889e-05	-3.585185757576317656e+01
1.630606738809855051e+04	1.403571371210189511e+02	-1.071157958598852474e-05	-3.584989082536441884e+01
1.630608912722897730e+04	1.403681395592379033e+02	-1.071043164536787520e-05	-3.584792701979944241e+01
1.630611086635940228e+04	1.403749907866467765e+02	-1.070978742804211285e-05	-3.584596614620193122e+01
1.630613260548982907e+04	1.403776847345514796e+02	-1.070964757454066104e-05	-3.584400819177700726e+01
1.630615434462025587e+04	1.403762186204557167e+02	-1.071001243559836044e-05	-3.584205314380092489e+01
1.630617608375068266e+04	1.403705931354476490e+02	-1.071088204930303855e-05	-3.584010098962036039e+01
1.630619782288110764e+04	1.403608125980088346e+02	-1.071225612189596634e-05	-3.583815171665224852e+01
1.630621956201153444e+04	1.403468850721156969e+02	-1.071413401246209689e-05	-3.583620531238305063e+01
1.630624130114196123e+04	1.403288224479272230e+02	-1.071651472170454099e-05	-3.583426176436841359e+01
1.630626304027238803e+04	1.403066404838023971e+02	-1.071939688495333171e-05	-3.583232106023265828e+01
1.630628477940281300e+04	1.402803588088505933e+02	-1.072277876951243420e-05	-3.583038318766843133e+01
1.630630651853323980e+04	1.402500008856949023e+02	-1.072665827640162151e-05	-3.582844813443614385e+01
1.630632825766366659e+04	1.402155939336005304e+02	-1.073103294650208483e-05	-3.582651588836357348e+01
1.630634999679409339e+04	1.401771688125997457e+02	-1.073589997106622018e-05	-3.582458643734533865e+01
1.630637173592452018e+04	1.401347598697111323e+02	-1.074125620650425876e-05	-3.582265976934267826e+01
1.630639347505494516e+04	1.400884047488076192e+02	-1.074709819331328836e-05	-3.582073587238271273e+01
1.630641521418537195e+04	1.400381441661216400e+02	-1.075342217896809345e-05	-3.581881473455835163e+01
1.630643695331579875e+04	1.399840216537909328e+02	-1.076022414454932314e-05	-3.581689634402755473e+01
1.630645869244622554e+04	1.399260832742318428e+02	-1.076749983484212594e-05	-3.581498068901309040e+01
1.630648043157665052e+04	1.398643773084774011e+02	-1.077524479159899813e-05	-3.581306775780210216e+01
1.630650217070707731e+04	1.397989539219278186e+02	-1.078345438962466287e-05	-3.581115753874564689e+01
1.630652390983750411e+04	1.397298648112339947e+02	-1.079212387530762445e-05	-3.580925002025831816e+01
1.630654564896793090e+04	1.396571628362599427e+02	-1.080124840719402896e-05	-3.580734519081779865e+01
1.630656738809835588e+04	1.395809016412478627e+02	-1.081082309817509234e-05	-3.580544303896452618e+01
1.630658912722878267e+04	1.395011352694370146e+02	-1.082084305883918512e-05	-3.580354355330120342e+01
1.630661086635920947e+04	1.394179177754670320e+02	-1.083130344152405934e-05	-3.580164672249254920e+01
1.630663260548963626e+04	1.393313028399172993e+02	-1.084219948459524347e-05	-3.579975253526468748e+01
1.630665434462006124e+04	1.392413433903086855e+02	-1.085352655647125919e-05	-3.579786098040492703e+01
1.630667608375048803e+04	1.391480912328134423e+02	-1.086528019891699991e-05	-3.579597204676137068e+01
1.630669782288091483e+04	1.390515966987866250e+02	-1.087745616913287424e-05	-3.579408572324242499e+01
1.630671956201134162e+04	1.389519083100508965e+02	-1.089005048017867236e-05	-3.579220199881651610e+01
1.630674130114176660e+04	1.388490724666402230e+02	-1.090305943928823069e-05	-3.579032086251164912e+01
1.630676304027219339e+04	1.387431331604325067e+02	-1.091647968365307394e-05	-3.578844230341514532e+01
1.630678477940262019e+04	1.386341317177880796e+02	-1.093030821328088653e-05	-3.578656631067310201e+01
1.630680651853304698e+04	1.385221065739584674e+02	-1.094454242056650678e-05	-3.578469287349016525e+01
1.630682825766347196e+04	1.384070930816462521e+02	-1.095918011625024435e-05	-3.578282198112912482e+01
1.630684999679389875e+04	1.382891233556813404e+02	-1.097421955147873474e-05	-3.578095362291054471e+01
1.630687173592432555e+04	1.381682261553444562e+02	-1.098965943572823607e-05	-3.577908778821235103e+01
1.630689347505475234e+04	1.380444268054129111e+02	-1.100549895039779010e-05	-3.577722446646962595e+01
1.630691521418517732e+04	1.379177471565358815e+02	-1.102173775792981213e-05	-3.577536364717411743e+01
1.630693695331560411e+04	1.377882055850745928e+02	-1.103837600636768901e-05	-3.577350531987386972e+01
1.630695869244603091e+04	1.376558170320646468e+02	-1.105541432931361718e-05	-3.577164947417307417e+01
1.630698043157645770e+04	1.375205930804913237e+02	-1.107285384130398409e-05	-3.576979609973151497e+01
1.630700217070688450e+04	1.373825420696057336e+02	-1.109069612867362826e-05	-3.576794518626428498e+01
1.630702390983730947e+04	1.372416692445679871e+02	-1.110894323603422880e-05	-3.576609672354153702e+01
1.630704564896773627e+04	1.370979769392814944e+02	-1.112759764854406443e-05	-3.576425070138804330e+01
1.630706738809816306e+04	1.369514647898861313e+02	-1.114666227019683614e-05	-3.576240710968289704e+01
1.630708912722858986e+04	1.368021299760148963e+02	-1.116614039840502736e-05	-3.576056593835923536e+01
1.630711086635901484e+04	1.366499674865914358e+02	-1.118603569519797841e-05	-3.575872717740377738e+01
1.630713260548944163e+04	1.364949704066559661e+02	-1.120635215539571278e-05	-3.575689081685666793e+01
1.630715434461986843e+04	1.363371302214635250e+02	-1.122709407215663432e-05	-3.575505684681099439e+01
1.630717608375029522e+04	1.361764371339002651e+02	-1.124826600032921700e-05	-3.575322525741263036e+01
1.630719782288072020e+04	1.360128803911125033e+02	-1.126987271806520863e-05	-3.575139603885973827e+01
1.630721956201114699e+04	1.358464486161454658e+02	-1.129191918717381336e-05	-3.574956918140262729e+01
1.630724130114157379e+04	1.356771301403414043e+02	-1.131441051271258389e-05	-3.574774467534330569e+01
1.630726304027200058e+04	1.355049133322484636e+02	-1.133735190232193889e-05	-3.574592251103525342e+01
1.630728477940242556e+04	1.353297869188533866e+02	-1.136074862581443575e-05	-3.574410267888308113e+01
1.630730651853285235e+04	1.351517402950544522e+02	-1.138460597552961539e-05	-3.574228516934223165e+01
1.630732825766327915e+04	1.349707638174542410e+02	-1.140892922795785490e-05	-3.574046997291866035e+01
1.630734999679370594e+04	1.347868490787544431e+02	-1.143372360712407178e-05	-3.573865708016858633e+01
1.630737173592413092e+04	1.345999891592879010e+02	-1.145899425020462029e-05	-3.573684648169808753e+01
1.630739347505455771e+04	1.344101788525203744e+02	-1.148474617582555709e-05	-3.573503816816294432e+01
1.630741521418498451e+04	1.342174148616831246e+02	-1.151098425546318699e-05	-3.573323213026825584e+01
1.630743695331541130e+04	1.340216959650688011e+02	-1.153771318833291239e-05	-3.573142835876811318e+01
1.630745869244583628e+04	1.338230231479199688e+02	-1.156493748011464382e-05	-3.572962684446541459e+01
1.630748043157626307e+04	1.336213996992634350e+02	-1.159266142582073355e-05	-3.572782757821152444e+01
1.630750217070668987e+04	1.334168312724870589e+02	-1.162088909706607676e-05	-3.572603055090594637e+01
1.630752390983711666e+04	1.332093259089122057e+02	-1.164962433395119120e-05	-3.572423575349610303e+01
1.630754564896754346e+04	1.329988940240848478e+02	-1.167887074171690471e-05	-3.572244317697710159e+01
1.630756738809796843e+04	1.327855483569776425e+02	-1.170863169227546209e-05	-3.572065281239122214e+01
1.630758912722839523e+04	1.325693038827613179e+02	-1.173891033066692701e-05	-3.571886465082794615e+01
1.630761086635882202e+04	1.323501776902664346e+02	-1.176970958643375709e-05	-3.571707868342345193e+01
1.630763260548924882e+04	1.321281888257002777e+02	-1.180103218984871510e-05	-3.571529490136051521e+01
1.630765434461967379e+04	1.319033581046113284e+02	-1.183288069287485002e-05	-3.571351329586805434e+01
1.630767608375010059e+04	1.316757078944946784e+02	-1.186525749468037911e-05	-3.571173385822100244e+01
1.630769782288052738e+04	1.314452618708043872e+02	-1.189816487147646197e-05	-3.570995657973997339e+01
1.630771956201095418e+04	1.312120447494787641e+02	-1.193160501039360731e-05	-3.570818145179105585e+01
1.630774130114137915e+04	1.309760819993817904e+02	-1.196558004706264273e-05	-3.570640846578540817e+01
1.630776304027180595e+04	1.307373995383250360e+02	-1.200009210651942988e-05	-3.570463761317918738e+01
1.630778477940223274e+04	1.304960234165449151e+02	-1.203514334701019488e-05	-3.570286888547320103e+01
1.630780651853265954e+04	1.302519794916792364e+02	-1.207073600623556649e-05	-3.570110227421254478e+01
1.630782825766308451e+04	1.300052930993993812e+02	-1.210687244953805860e-05	-3.569933777098655270e+01
1.630784999679351131e+04	1.297559887239214902e+02	-1.214355521951008785e-05	-3.569757536742837090e+01
1.630787173592393810e+04	1.295040896726319488e+02	-1.218078708647635298e-05	-3.569581505521480835e+01
1.630789347505436490e+04	1.292496177590239483e+02	-1.221857109928896411e-05	-3.569405682606598162e+01
1.630791521418478987e+04	1.289925929980499859e+02	-1.225691063586343749e-05	-3.569230067174519405e+01
1.630793695331521667e+04	1.287330333178549608e+02	-1.229580945288047133e-05	-3.569054658405857339e+01
1.630795869244564346e+04	1.284709542916639862e+02	-1.233527173408171119e-05	-3.568879455485490837e+01
1.630798043157607026e+04	1.282063688933633046e+02	-1.237530213659833734e-05	-3.568704457602532898e+01
1.630800217070649524e+04	1.279392872800294612e+02	-1.241590583476815532e-05	-3.568529663950315012e+01
1.630802390983692203e+04	1.276697166043471867e+02	-1.245708856092041536e-05	-3.568355073726352344e+01
1.630804564896734882e+04	1.273976608594943656e+02	-1.249885664263793857e-05	-3.568180686132333079e+01
1.630806738809777562e+04	1.271231207586862268e+02	-1.254121703604268438e-05	-3.568006500374078627e+01
1.630808912722820060e+04	1.268460936511580002e+02	-1.258417735469223043e-05	-3.567832515661537940e+01
1.630811086635862739e+04	1.265665734759209045e+02	-1.262774589372311855e-05	-3.567658731208745593e+01
1.630813260548905419e+04	1.262845507541793495e+02	-1.267193164892838812e-05	-3.567485146233814675e+01
1.630815434461948098e+04	1.260000126208265385e+02	-1.271674433051346568e-05	-3.567311759958898421e+01
1.630817608374990778e+04	1.257129428949663463e+02	-1.276219437133458859e-05	-3.567138571610180975e+01
1.630819782288033275e+04	1.254233221889377887e+02	-1.280829292948660255e-05	-3.566965580417848258e+01
1.630821956201075955e+04	1.251311280548536473e+02	-1.285505188517196020e-05	-3.566792785616063099e+01
1.630824130114118634e+04	1.248363351672124963e+02	-1.290248383184869994e-05	-3.566620186442953155e+01
1.630826304027161314e+04	1.245389155397040213e+02	-1.295060206172225388e-05	-3.566447782140564726e+01
1.630828477940203811e+04	1.242388387739176494e+02	-1.299942054571178369e-05	-3.566275571954869861e+01
1.630830651853246491e+04	1.239360723372754478e+02	-1.304895390808727151e-05	-3.566103555135721592e+01
1.630832825766289170e+04	1.236305818671570904e+02	-1.309921739603697625e-05	-3.565931730936849675e+01
1.630834999679331850e+04	1.233223314978681913e+02	-1.315022684448515281e-05	-3.565760098615820795e+01
1.630837173592374347e+04	1.230112842068244419e+02	-1.320199863653753103e-05	-3.565588657434034303e+01
1.630839347505417027e+04	1.226974021760923108e+02	-1.325454965998544039e-05	-3.565417406656684562e+01
1.630841521418459706e+04	1.223806471652393526e+02	-1.330789726034745197e-05	-3.565246345552749574e+01
1.630843695331502386e+04	1.220609808913101944e+02	-1.336205919097155179e-05	-3.565075473394970373e+01
1.630845869244544883e+04	1.217383654116566589e+02	-1.341705356075800379e-05	-3.564904789459826873e+01
1.630848043157587563e+04	1.214127635053144587e+02	-1.347289878009489693e-05	-3.564734293027512990e+01
1.630850217070630242e+04	1.210841390486362599e+02	-1.352961350562361466e-05	-3.564563983381917467e+01
1.630852390983672922e+04	1.207524573809583472e+02	-1.358721658446957741e-05	-3.564393859810611787e+01
1.630854564896715419e+04	1.204176856561984721e+02	-1.364572699858543906e-05	-3.564223921604817491e+01
1.630856738809758099e+04	1.200797931764488453e+02	-1.370516380985854750e-05	-3.564054168059398364e+01
1.630858912722800778e+04	1.197387517038482088e+02	-1.376554610663142910e-05	-3.563884598472818510e+01
