# time(us)	tip(nm)	Fts(nN)	Xb(nm)
1.630437173592529507e+04	1.594658668255321174e+02	-8.832769051051226030e-06	-3.463555628762633631e+01
1.630439347505572005e+04	1.598446513268210651e+02	-8.798596841126947159e-06	-3.463334497212180452e+01
1.630441521418614684e+04	1.602204106987809666e+02	-8.764894286420706396e-06	-3.463113798026343915e+01
1.630443695331657364e+04	1.605931668404907100e+02	-8.731653235464340558e-06	-3.462893529061312137e+01
1.630445869244700043e+04	1.609629413639321456e+02	-8.698865725161504536e-06	-3.462673688187678067e+01
1.630448043157742541e+04	1.613297551011444568e+02	-8.666524019331248266e-06	-3.462454273290271090e+01
1.630450217070785220e+04	1.616936276134341313e+02	-8.634620645844051941e-06	-3.462235282268036229e+01
1.630452390983827900e+04	1.620545767087358229e+02	-8.603148431893545094e-06	-3.462016713033885651e+01
1.630454564896870579e+04	1.624126179731343029e+02	-8.572100536972664757e-06	-3.461798563514562943e+01
1.630456738809913077e+04	1.627677643223974542e+02	-8.541470483154068574e-06	-3.461580831650514511e+01
1.630458912722955756e+04	1.631200255791378595e+02	-8.511252182309636823e-06	-3.461363515395741075e+01
1.630461086635998436e+04	1.634694080809185266e+02	-8.481439959943468939e-06	-3.461146612717686821e+01
1.630463260549041115e+04	1.638159143242536402e+02	-8.452028575355241945e-06	-3.460930121597095876e+01
1.630465434462083795e+04	1.641595426490282819e+02	-8.423013237896712408e-06	-3.460714040027891514e+01
1.630467608375126292e+04	1.645002869673798216e+02	-8.394389619132344851e-06	-3.460498366017049676e+01
1.630469782288168972e+04	1.648381365405496695e+02	-8.366153860765248066e-06	-3.460283097584477474e+01
1.630471956201211651e+04	1.651730758066426290e+02	-8.338302578240758205e-06	-3.460068232762893814e+01
1.630474130114254331e+04	1.655050842616183218e+02	-8.310832859992127138e-06	-3.459853769597696527e+01
1.630476304027296828e+04	1.658341363951999767e+02	-8.283742262344631640e-06	-3.459639706146867155e+01
1.630478477940339508e+04	1.661602016827262389e+02	-8.257028800145705088e-06	-3.459426040480830267e+01
1.630480651853382187e+04	1.664832446332998472e+02	-8.230690933238542968e-06	-3.459212770682355398e+01
1.630482825766424867e+04	1.668032248939062185e+02	-8.204727548944705973e-06	-3.458999894846443368e+01
1.630484999679467364e+04	1.671200974085064956e+02	-8.179137940766928355e-06	-3.458787411080207619e+01
1.630487173592510044e+04	1.674338126304419347e+02	-8.153921783565623094e-06	-3.458575317502766922e+01
1.630489347505552723e+04	1.677443167858490369e+02	-8.129079105501794739e-06	-3.458363612245139507e+01
1.630491521418595403e+04	1.680515521851699816e+02	-8.104610257073999044e-06	-3.458152293450132930e+01
1.630493695331637900e+04	1.683554575792623496e+02	-8.080515877607735833e-06	-3.457941359272243886e+01
1.630495869244680580e+04	1.686559685560784203e+02	-8.056796859581839877e-06	-3.457730807877552337e+01
1.630498043157723259e+04	1.689530179733947648e+02	-8.033454311197559637e-06	-3.457520637443614930e+01
1.630500217070765939e+04	1.692465364226406450e+02	-8.010489517612190297e-06	-3.457310846159371209e+01
1.630502390983808436e+04	1.695364527185025167e+02	-7.987903901270154239e-06	-3.457101432225042714e+01
1.630504564896851116e+04	1.698226944086711967e+02	-7.965698981770188671e-06	-3.456892393852024981e+01
1.630506738809893795e+04	1.701051882978621279e+02	-7.943876335707862575e-06	-3.456683729262808669e+01
1.630508912722936475e+04	1.703838609800666291e+02	-7.922437556928340509e-06	-3.456475436690863745e+01
1.630511086635978972e+04	1.706586393729001259e+02	-7.901384217614834205e-06	-3.456267514380565586e+01
1.630513260549021652e+04	1.709294512478907961e+02	-7.880717830624106877e-06	-3.456059960587086266e+01
1.630515434462064331e+04	1.711962257506067147e+02	-7.860439813461880771e-06	-3.455852773576311421e+01
1.630517608375107011e+04	1.714588939046464873e+02	-7.840551454268458861e-06	-3.455645951624742906e+01
1.630519782288149690e+04	1.717173890937193903e+02	-7.821053880158041052e-06	-3.455439493019419928e+01
1.630521956201192188e+04	1.719716475163106963e+02	-7.801948028225706274e-06	-3.455233396057819562e+01
1.630524130114234868e+04	1.722216086077641535e+02	-7.783234619502709588e-06	-3.455027659047777178e+01
1.630526304027277547e+04	1.724672154250138192e+02	-7.764914136105401823e-06	-3.454822280307399751e+01
1.630528477940320226e+04	1.727084149896522547e+02	-7.746986801785072895e-06	-3.454617258164976334e+01
1.630530651853362724e+04	1.729451585855325391e+02	-7.729452566046671888e-06	-3.454412590958899187e+01
1.630532825766405404e+04	1.731774020076555018e+02	-7.712311091963301287e-06	-3.454208277037579222e+01
1.630534999679448083e+04	1.734051057596860232e+02	-7.695561747771666392e-06	-3.454004314759366423e+01
1.630537173592490763e+04	1.736282351980687224e+02	-7.679203602291629458e-06	-3.453800702492469554e+01
1.630539347505533260e+04	1.738467606213608860e+02	-7.663235424170659695e-06	-3.453597438614871606e+01
1.630541521418575940e+04	1.740606573040681155e+02	-7.647655684912233552e-06	-3.453394521514253768e+01
1.630543695331618619e+04	1.742699054749385539e+02	-7.632462565606392397e-06	-3.453191949587924370e+01
1.630545869244661299e+04	1.744744902403481888e+02	-7.617653967240830439e-06	-3.452989721242732912e+01
1.630548043157703796e+04	1.746744014540705052e+02	-7.603227524432951363e-06	-3.452787834894998298e+01
1.630550217070746476e+04	1.748696335353767495e+02	-7.589180622386913129e-06	-3.452586288970435646e+01
1.630552390983789155e+04	1.750601852380309822e+02	-7.575510416846394520e-06	-3.452385081904078845e+01
1.630554564896831835e+04	1.752460593733428027e+02	-7.562213856781979615e-06	-3.452184212140218023e+01
1.630556738809874332e+04	1.754272624909860951e+02	-7.549287709524520989e-06	-3.451983678132310018e+01
1.630558912722917012e+04	1.756038045218045625e+02	-7.536728588030317986e-06	-3.451783478342916567e+01
1.630561086635959691e+04	1.757756983872757814e+02	-7.524532979942696008e-06	-3.451583611243643190e+01
1.630563260549002371e+04	1.759429595807041835e+02	-7.512697278096700410e-06	-3.451384075315051803e+01
1.630565434462044868e+04	1.761056057255459848e+02	-7.501217812099529007e-06	-3.451184869046608839e+01
1.630567608375087548e+04	1.762636561165379021e+02	-7.490090880609555012e-06	-3.450985990936600700e+01
1.630569782288130227e+04	1.764171312495013524e+02	-7.479312783930782489e-06	-3.450787439492085440e+01
1.630571956201172907e+04	1.765660523458155069e+02	-7.468879856538155139e-06	-3.450589213228807495e+01
1.630574130114215404e+04	1.767104408776083915e+02	-7.458788499151676869e-06	-3.450391310671148659e+01
1.630576304027258084e+04	1.768503180996915773e+02	-7.449035209984269532e-06	-3.450193730352049215e+01
1.630578477940300763e+04	1.769857045941700164e+02	-7.439616614799152943e-06	-3.449996470812961036e+01
1.630580651853343443e+04	1.771166198334854869e+02	-7.430529495427980549e-06	-3.449799530603760900e+01
1.630582825766386122e+04	1.772430817674188575e+02	-7.421770816419623345e-06	-3.449602908282713543e+01
1.630584999679428620e+04	1.773651064392642809e+02	-7.413337749512536522e-06	-3.449406602416390655e+01
1.630587173592471299e+04	1.774827076360195690e+02	-7.405227695649820847e-06	-3.449210611579617591e+01
1.630589347505513979e+04	1.775958965770072666e+02	-7.397438304285380362e-06	-3.449014934355408712e+01
1.630591521418556658e+04	1.777046816448558104e+02	-7.389967489761993051e-06	-3.448819569334921908e+01
1.630593695331599156e+04	1.778090681622368550e+02	-7.382813444576840367e-06	-3.448624515117375466e+01
1.630595869244641835e+04	1.779090582171850201e+02	-7.375974649386742566e-06	-3.448429770310006859e+01
1.630598043157684515e+04	1.780046505392115819e+02	-7.369449879644075702e-06	-3.448235333528013769e+01
1.630600217070727194e+04	1.780958404277928935e+02	-7.363238208793846664e-06	-3.448041203394491561e+01
1.630602390983769692e+04	1.781826197341585782e+02	-7.357339008002863710e-06	-3.447847378540372887e+01
1.630604564896812371e+04	1.782649768966387853e+02	-7.351751942432463697e-06	-3.447653857604389316e+01
1.630606738809855051e+04	1.783428970291582516e+02	-7.346476964106893615e-06	-3.447460639232988200e+01
1.630608912722897730e+04	1.784163620618046195e+02	-7.341514301468887824e-06	-3.447267722080305674e+01
1.630611086635940228e+04	1.784853509317452449e+02	-7.336864445752530003e-06	-3.447075104808100576e+01
1.630613260548982907e+04	1.785498398221396599e+02	-7.332528134340230565e-06	-3.446882786085692629e+01
1.630615434462025587e+04	1.786098024460909244e+02	-7.328506331305512503e-06	-3.446690764589924783e+01
1.630617608375068266e+04	1.786652103721193043e+02	-7.324800205375300341e-06	-3.446499039005099263e+01
1.630619782288110764e+04	1.787160333871163402e+02	-7.321411105575147074e-06	-3.446307608022924995e+01
1.630621956201153444e+04	1.787622398922688944e+02	-7.318340534846687103e-06	-3.446116470342482074e+01
1.630624130114196123e+04	1.788037973270257055e+02	-7.315590121949681428e-06	-3.445925624670149290e+01
1.630626304027238803e+04	1.788406726158230526e+02	-7.313161591979920381e-06	-3.445735069719570021e+01
1.630628477940281300e+04	1.788728326319959763e+02	-7.311056735849560966e-06	-3.445544804211589707e+01
1.630630651853323980e+04	1.789002446730773102e+02	-7.309277379087716876e-06	-3.445354826874216769e+01
1.630632825766366659e+04	1.789228769415378224e+02	-7.307825350326202968e-06	-3.445165136442568610e+01
1.630634999679409339e+04	1.789406990249394767e+02	-7.306702449838311635e-06	-3.444975731658821871e+01
1.630637173592452018e+04	1.789536823694713519e+02	-7.305910418497425286e-06	-3.444786611272170518e+01
1.630639347505494516e+04	1.789618007409048914e+02	-7.305450907517129371e-06	-3.444597774038775384e+01
1.630641521418537195e+04	1.789650306671495059e+02	-7.305325449325110361e-06	-3.444409218721708754e+01
1.630643695331579875e+04	1.789633518568017223e+02	-7.305535429910414157e-06	-3.444220944090923808e+01
1.630645869244622554e+04	1.789567475883646352e+02	-7.306082062966717606e-06	-3.444032948923189963e+01
1.630648043157665052e+04	1.789452050651600814e+02	-7.306966366134318940e-06	-3.443845232002072976e+01
1.630650217070707731e+04	1.789287157313686407e+02	-7.308189139620168152e-06	-3.443657792117853234e+01
1.630652390983750411e+04	1.789072755450926309e+02	-7.309750947448833361e-06	-3.443470628067522199e+01
1.630654564896793090e+04	1.788808852048557014e+02	-7.311652101568659394e-06	-3.443283738654698567e+01
1.630656738809835588e+04	1.788495503265115190e+02	-7.313892649005672886e-06	-3.443097122689615475e+01
1.630658912722878267e+04	1.788132815681299519e+02	-7.316472362224644646e-06	-3.442910778989063658e+01
1.630661086635920947e+04	1.787720947010554653e+02	-7.319390732821669829e-06	-3.442724706376343136e+01
1.630663260548963626e+04	1.787260106259836334e+02	-7.322646968636047318e-06	-3.442538903681231233e+01
1.630665434462006124e+04	1.786750553335605218e+02	-7.326239994332151550e-06	-3.442353369739932845e+01
1.630667608375048803e+04	1.786192598096851327e+02	-7.330168455463608402e-06	-3.442168103395043488e+01
1.630669782288091483e+04	1.785586598863590098e+02	-7.334430725994121060e-06	-3.441983103495503116e+01
1.630671956201134162e+04	1.784932960395855730e+02	-7.339024919211171063e-06	-3.441798368896560589e+01
1.630674130114176660e+04	1.784232131364622091e+02	-7.343948901931131822e-06	-3.441613898459721099e+01
1.630676304027219339e+04	1.783484601342237568e+02	-7.349200311857644411e-06	-3.441429691052725559e+01
1.630678477940262019e+04	1.782690897345725318e+02	-7.354776577920048381e-06	-3.441245745549488078e+01
1.630680651853304698e+04	1.781851579971755370e+02	-7.360674943384408907e-06	-3.441062060830076774e+01
1.630682825766347196e+04	1.780967239166984086e+02	-7.366892491498587001e-06	-3.440878635780655515e+01
1.630684999679389875e+04	1.780038489681905105e+02	-7.373426173402919562e-06	-3.440695469293461883e+01
1.630687173592432555e+04	1.779065966260137941e+02	-7.380272838011916300e-06	-3.440512560266755315e+01
1.630689347505475234e+04	1.778050318618286383e+02	-7.387429263548671253e-06	-3.440329907604782989e+01
1.630691521418517732e+04	1.776992206274042019e+02	-7.394892190393381545e-06	-3.440147510217747140e+01
1.630693695331560411e+04	1.775892293282001333e+02	-7.402658354890877695e-06	-3.439965367021759590e+01
1.630695869244603091e+04	1.774751242937780660e+02	-7.410724523749288903e-06	-3.439783476938813322e+01
1.630698043157645770e+04	1.773569712511387877e+02	-7.419087528653159291e-06	-3.439601838896730612e+01
1.630700217070688450e+04	1.772348348070435691e+02	-7.427744300709869751e-06	-3.439420451829143133e+01
1.630702390983730947e+04	1.771087779452666950e+02	-7.436691904347947318e-06	-3.439239314675440795e+01
1.630704564896773627e+04	1.769788615445440314e+02	-7.445927570290236684e-06	-3.439058426380754696e+01
1.630706738809816306e+04	1.768451439227322908e+02	-7.455448727233090822e-06	-3.438877785895896011e+01
1.630708912722858986e+04	1.767076804123709621e+02	-7.465253031876056423e-06	-3.438697392177341072e+01
1.630711086635901484e+04	1.765665229724608878e+02	-7.475338396963550137e-06	-3.438517244187187316e+01
1.630713260548944163e+04	1.764217198408287572e+02	-7.485703017021413418e-06	-3.438337340893117045e+01
1.630715434461986843e+04	1.762733152309597529e+02	-7.496345391496460971e-06	-3.438157681268374688e+01
1.630717608375029522e+04	1.761213490766368182e+02	-7.507264345035983485e-06	-3.437978264291710673e+01
1.630719782288072020e+04	1.759658568271473484e+02	-7.518459044676484742e-06	-3.437799088947367210e+01
1.630721956201114699e+04	1.758068692952049048e+02	-7.529929013746048622e-06	-3.437620154225039215e+01
1.630724130114157379e+04	1.756444125590951160e+02	-7.541674142322704886e-06	-3.437441459119833098e+01
1.630726304027200058e+04	1.754785079199013467e+02	-7.553694694130623292e-06	-3.437263002632241893e+01
1.630728477940242556e+04	1.753091719139956126e+02	-7.565991309798087770e-06	-3.437084783768111151e+01
1.630730651853285235e+04	1.751364163803179395e+02	-7.578565006443340501e-06	-3.436906801538602707e+01
1.630732825766327915e+04	1.749602485813028068e+02	-7.591417173597985992e-06	-3.436729054960165541e+01
1.630734999679370594e+04	1.747806713756656620e+02	-7.604549565521020033e-06	-3.436551543054498836e+01
1.630737173592413092e+04	1.745976834406419869e+02	-7.617964289999066154e-06	-3.436374264848529236e+01
1.630739347505455771e+04	1.744112795406716714e+02	-7.631663793770950306e-06	-3.436197219374365375e+01
1.630741521418498451e+04	1.742214508389705543e+02	-7.645650844754511862e-06	-3.436020405669285793e+01
1.630743695331541130e+04	1.740281852479149336e+02	-7.659928511292404991e-06	-3.435843822775683520e+01
1.630745869244583628e+04	1.738314678137049327e+02	-7.674500138669289261e-06	-3.435667469741055413e+01
1.630748043157626307e+04	1.736312811303642718e+02	-7.689369323185981560e-06	-3.435491345617961656e+01
1.630750217070668987e+04	1.734276057777887559e+02	-7.704539884105860416e-06	-3.435315449464000181e+01
1.630752390983711666e+04	1.732204207782781680e+02	-7.720015833814772782e-06	-3.435139780341767590e+01
1.630754564896754346e+04	1.730097040657696823e+02	-7.735801346557903463e-06	-3.434964337318841388e+01
1.630756738809796843e+04	1.727954329618526685e+02	-7.751900726134993908e-06	-3.434789119467741614e+01
1.630758912722839523e+04	1.725775846525760073e+02	-7.768318372948790362e-06	-3.434614125865901713e+01
1.630761086635882202e+04	1.723561366600628730e+02	-7.785058750810627348e-06	-3.434439355595647214e+01
1.630763260548924882e+04	1.721310673030269243e+02	-7.802126353911333339e-06	-3.434264807744152392e+01
1.630765434461967379e+04	1.719023561404340228e+02	-7.819525674365520140e-06	-3.434090481403423922e+01
1.630767608375010059e+04	1.716699843927761719e+02	-7.837261170732165834e-06	-3.433916375670271037e+01
1.630769782288052738e+04	1.714339353357103448e+02	-7.855337237905022800e-06	-3.433742489646265028e+01
1.630771956201095418e+04	1.711941946611712808e+02	-7.873758178752360517e-06	-3.433568822437727164e+01
1.630774130114137915e+04	1.709507508014756638e+02	-7.892528177867321363e-06	-3.433395373155688191e+01
1.630776304027180595e+04	1.707035952124084304e+02	-7.911651277767621241e-06	-3.433222140915869858e+01
1.630778477940223274e+04	1.704527226117927512e+02	-7.931131357857201049e-06	-3.433049124838649391e+01
1.630780651853265954e+04	1.701981311706081783e+02	-7.950972116432578719e-06	-3.432876324049034622e+01
1.630782825766308451e+04	1.699398226543149519e+02	-7.971177055983364915e-06	-3.432703737676644806e+01
1.630784999679351131e+04	1.696778025126653802e+02	-7.991749472000621684e-06	-3.432531364855667988e+01
1.630787173592393810e+04	1.694120799169285760e+02	-8.012692445467722250e-06	-3.432359204724845370e+01
1.630789347505436490e+04	1.691426677441120034e+02	-8.034008839167790507e-06	-3.432187256427440758e+01
1.630791521418478987e+04	1.688695825084230080e+02	-8.055701297899120131e-06	-3.432015519111219959e+01
1.630793695331521667e+04	1.685928442408764738e+02	-8.077772252645941091e-06	-3.431843991928412407e+01
1.630795869244564346e+04	1.683124763185984989e+02	-8.100223928706978111e-06	-3.431672674035695536e+01
1.630798043157607026e+04	1.680285052460064890e+02	-8.123058357739193605e-06	-3.431501564594167064e+01
1.630800217070649524e+04	1.677409603906461939e+02	-8.146277393628511879e-06	-3.431330662769317996e+01
1.630802390983692203e+04	1.674498736770345886e+02	-8.169882732054894461e-06	-3.431159967730998517e+01
1.630804564896734882e+04	1.671552792423821359e+02	-8.193875933575109390e-06	-3.430989478653413016e+01
1.630806738809777562e+04	1.668572130585473587e+02	-8.218258450004421083e-06	-3.430819194715076037e+01
1.630808912722820060e+04	1.665557125250003310e+02	-8.243031653838215383e-06	-3.430649115098797353e+01
1.630811086635862739e+04	1.662508160379387050e+02	-8.268196870416539215e-06	-3.430479238991642887e+01
1.630813260548905419e+04	1.659425625410018768e+02	-8.293755412499755097e-06	-3.430309565584939691e+01
1.630815434461948098e+04	1.656309910632653271e+02	-8.319708616891879172e-06	-3.430140094074218382e+01
1.630817608374990778e+04	1.653161402503647253e+02	-8.346057882720254897e-06	-3.429970823659206758e+01
1.630819782288033275e+04	1.649980478946894209e+02	-8.372804710956689036e-06	-3.429801753543802079e+01
1.630821956201075955e+04	1.646767504706116085e+02	-8.399950744745989631e-06	-3.429632882936049754e+01
1.630824130114118634e+04	1.643522826806641888e+02	-8.427497810093083510e-06	-3.429464211048108524e+01
1.630826304027161314e+04	1.640246770184525644e+02	-8.455447956451154600e-06	-3.429295737096246910e+01
1.630828477940203811e+04	1.636939633538949863e+02	-8.483803496748707631e-06	-3.429127460300797736e+01
1.630830651853246491e+04	1.633601685461193540e+02	-8.512567046394945764e-06	-3.428959379886145342e+01
1.630832825766289170e+04	1.630233160890151680e+02	-8.541741560809511805e-06	-3.428791495080709950e+01
1.630834999679331850e+04	1.626834257940479631e+02	-8.571330371035160072e-06	-3.428623805116911427e+01
1.630837173592374347e+04	1.623405135144980136e+02	-8.601337217009183460e-06	-3.428456309231143706e+01
1.630839347505417027e+04	1.619945909147834868e+02	-8.631766278092630628e-06	-3.428289006663774785e+01
1.630841521418459706e+04	1.616456652879863327e+02	-8.662622200484213937e-06	-3.428121896659094858e+01
1.630843695331502386e+04	1.612937394241160121e+02	-8.693910121178631277e-06	-3.427954978465319158e+01
1.630845869244544883e+04	1.609388115310328544e+02	-8.725635688166099576e-06	-3.427788251334549585e+01
1.630848043157587563e+04	1.605808752093150531e+02	-8.757805076611256689e-06	-3.427621714522756236e+01
1.630850217070630242e+04	1.602199194816992645e+02	-8.790425000794208367e-06	-3.427455367289756794e+01
1.630852390983672922e+04	1.598559288770661624e+02	-8.823502721644284932e-06	-3.427289208899198769e+01
1.630854564896715419e+04	1.594888835682758668e+02	-8.857046049747311478e-06	-3.427123238618530365e+01
1.630856738809758099e+04	1.591187595625080178e+02	-8.891063343759404846e-06	-3.426957455718982715e+01
1.630858912722800778e+04	1.587455289421225473e+02	-8.925563504213370456e-06	-3.426791859475549273e+01
