# time(us)	tip(nm)	Fts(nN)	Xb(nm)
1.630437173592529507e+04	2.394747596456047631e+02	-5.790200501509707236e-06	-3.076705741542741235e-01
1.630439347505572005e+04	2.399525960545091436e+02	-5.767189755813270875e-06	-3.076240593550932378e-01
1.630441521418614684e+04	2.404264538481957629e+02	-5.744505465620612186e-06	-3.075777077221724110e-01
1.630443695331657364e+04	2.408962939277869850e+02	-5.722145059890285732e-06	-3.075315182475595321e-01
1.630445869244700043e+04	2.413620782601411747e+02	-5.700105967063964547e-06	-3.074854899322252977e-01
1.630448043157742541e+04	2.418237702563730522e+02	-5.678385598298970635e-06	-3.074396217859498015e-01
1.630450217070785220e+04	2.422813351271757369e+02	-5.656981332304554770e-06	-3.073939128272126231e-01
1.630452390983827900e+04	2.427347402104135199e+02	-5.635890501919130553e-06	-3.073483620830819718e-01
1.630454564896870579e+04	2.431839552668028261e+02	-5.615110382544124226e-06	-3.073029685891088825e-01
1.630456738809913077e+04	2.436289527399081862e+02	-5.594638182527686694e-06	-3.072577313892214668e-01
1.630458912722955756e+04	2.440697079771230165e+02	-5.574471035568149695e-06	-3.072126495356197196e-01
1.630461086635998436e+04	2.445061994087996311e+02	-5.554605995183596910e-06	-3.071677220886754323e-01
1.630463260549041115e+04	2.449384086832167782e+02	-5.535040031269862577e-06	-3.071229481168307185e-01
1.630465434462083795e+04	2.453663207556236046e+02	-5.515770028745651468e-06	-3.070783266964985936e-01
1.630467608375126292e+04	2.457899239301779915e+02	-5.496792788259694509e-06	-3.070338569119676619e-01
1.630469782288168972e+04	2.462092098541844223e+02	-5.478105028912003908e-06	-3.069895378553049170e-01
1.630471956201211651e+04	2.466241734646321504e+02	-5.459703392919163760e-06	-3.069453686262622050e-01
1.630474130114254331e+04	2.470348128876328246e+02	-5.441584452132228251e-06	-3.069013483321844649e-01
1.630476304027296828e+04	2.474411292919454866e+02	-5.423744716295944260e-06	-3.068574760879179686e-01
1.630478477940339508e+04	2.478431266983513979e+02	-5.406180642919490567e-06	-3.068137510157205594e-01
1.630480651853382187e+04	2.482408117471928506e+02	-5.388888648611951329e-06	-3.067701722451745550e-01
1.630482825766424867e+04	2.486341934269179887e+02	-5.371865121720527070e-06	-3.067267389131000943e-01
1.630484999679467364e+04	2.490232827669604205e+02	-5.355106436096373538e-06	-3.066834501634679855e-01
1.630487173592510044e+04	2.494080924987333390e+02	-5.338608965801617822e-06	-3.066403051473183261e-01
1.630489347505552723e+04	2.497886366889198371e+02	-5.322369100562210704e-06	-3.065973030226766260e-01
1.630491521418595403e+04	2.501649303495931065e+02	-5.306383261764306499e-06	-3.065544429544725946e-01
1.630493695331637900e+04	2.505369890299973008e+02	-5.290647918787562104e-06	-3.065117241144601490e-01
1.630495869244680580e+04	2.509048283950516520e+02	-5.275159605466572659e-06	-3.064691456811393100e-01
1.630498043157723259e+04	2.512684637958243457e+02	-5.259914936471793328e-06	-3.064267068396777094e-01
1.630500217070765939e+04	2.516279098373257170e+02	-5.244910623403917464e-06	-3.063844067818352612e-01
1.630502390983808436e+04	2.519831799490170852e+02	-5.230143490400864392e-06	-3.063422447058885001e-01
1.630504564896851116e+04	2.523342859634123840e+02	-5.215610489063292759e-06	-3.063002198165571399e-01
1.630506738809893795e+04	2.526812377080621559e+02	-5.201308712514259026e-06	-3.062583313249309103e-01
1.630508912722936475e+04	2.530240426160563061e+02	-5.187235408419880775e-06	-3.062165784483977249e-01
1.630511086635978972e+04	2.533627053599703345e+02	-5.173387990811330660e-06	-3.061749604105739597e-01
1.630513260549021652e+04	2.536972275139000885e+02	-5.159764050563570786e-06	-3.061334764412347309e-01
1.630515434462064331e+04	2.540276072479037737e+02	-5.146361364402944166e-06	-3.060921257762443393e-01
1.630517608375107011e+04	2.543538390587819720e+02	-5.133177902333863043e-06	-3.060509076574911558e-01
1.630519782288149690e+04	2.546759135406915675e+02	-5.120211833394171606e-06	-3.060098213328189543e-01
1.630521956201192188e+04	2.549938171986173927e+02	-5.107461529668925963e-06	-3.059688660559632400e-01
1.630524130114234868e+04	2.553075323072104652e+02	-5.094925568513178848e-06	-3.059280410864862465e-01
1.630526304027277547e+04	2.556170368169559310e+02	-5.082602732955944028e-06	-3.058873456897134857e-01
1.630528477940320226e+04	2.559223043090671581e+02	-5.070492010278811498e-06	-3.058467791366725197e-01
1.630530651853362724e+04	2.562233039999179596e+02	-5.058592588784237260e-06	-3.058063407040293447e-01
1.630532825766405404e+04	2.565200007952263377e+02	-5.046903852789710746e-06	-3.057660296740294936e-01
1.630534999679448083e+04	2.568123553936063104e+02	-5.035425375904462983e-06	-3.057258453344377513e-01
1.630537173592490763e+04	2.571003244385083804e+02	-5.024156912665159389e-06	-3.056857869784799231e-01
1.630539347505533260e+04	2.573838607169897159e+02	-5.013098388625574482e-06	-3.056458539047842149e-01
1.630541521418575940e+04	2.576629134031866215e+02	-5.002249889012719222e-06	-3.056060454173243346e-01
1.630543695331618619e+04	2.579374283438264115e+02	-4.991611646077780378e-06	-3.055663608253639807e-01
1.630545869244661299e+04	2.582073483826106326e+02	-4.981184025284392816e-06	-3.055267994434001655e-01
1.630548043157703796e+04	2.584726137198297806e+02	-4.970967510489322903e-06	-3.054873605911098688e-01
1.630550217070746476e+04	2.587331623031515164e+02	-4.960962688281157960e-06	-3.054480435932954707e-01
1.630552390983789155e+04	2.589889302451427398e+02	-4.951170231651115320e-06	-3.054088477798318491e-01
1.630554564896831835e+04	2.592398522627722173e+02	-4.941590883176431359e-06	-3.053697724856145879e-01
1.630556738809874332e+04	2.594858621338712510e+02	-4.932225437901223388e-06	-3.053308170505077968e-01
1.630558912722917012e+04	2.597268931653321715e+02	-4.923074726101598573e-06	-3.052919808192933737e-01
1.630561086635959691e+04	2.599628786676804566e+02	-4.914139596122032195e-06	-3.052532631416214892e-01
1.630563260549002371e+04	2.601937524305888019e+02	-4.905420897467450769e-06	-3.052146633719609037e-01
1.630565434462044868e+04	2.604194491938868055e+02	-4.896919464331699749e-06	-3.051761808695504508e-01
1.630567608375087548e+04	2.606399051086805798e+02	-4.888636099736406060e-06	-3.051378149983506316e-01
1.630569782288130227e+04	2.608550581833201250e+02	-4.880571560446401267e-06	-3.050995651269964859e-01
1.630571956201172907e+04	2.610648487091365268e+02	-4.872726542817850003e-06	-3.050614306287518507e-01
1.630574130114215404e+04	2.612692196611214399e+02	-4.865101669723703502e-06	-3.050234108814620093e-01
1.630576304027258084e+04	2.614681170690269028e+02	-4.857697478688070749e-06	-3.049855052675087830e-01
1.630578477940300763e+04	2.616614903547221616e+02	-4.850514411346754379e-06	-3.049477131737663993e-01
1.630580651853343443e+04	2.618492926320599850e+02	-4.843552804335649502e-06	-3.049100339915569169e-01
1.630582825766386122e+04	2.620314809659581101e+02	-4.836812881692170377e-06	-3.048724671166062605e-01
1.630584999679428620e+04	2.622080165878963953e+02	-4.830294748837741156e-06	-3.048350119490022547e-01
1.630587173592471299e+04	2.623788650655631045e+02	-4.823998388191244343e-06	-3.047976678931518246e-01
1.630589347505513979e+04	2.625439964249362674e+02	-4.817923656445265222e-06	-3.047604343577388075e-01
1.630591521418556658e+04	2.627033852236663165e+02	-4.812070283518298551e-06	-3.047233107556838183e-01
1.630593695331599156e+04	2.628570105752141899e+02	-4.806437873177602379e-06	-3.046862965041023386e-01
1.630595869244641835e+04	2.630048561237920239e+02	-4.801025905309075248e-06	-3.046493910242654701e-01
1.630598043157684515e+04	2.631469099707558144e+02	-4.795833739792389570e-06	-3.046125937415603002e-01
1.630600217070727194e+04	2.632831645536776932e+02	-4.790860621922301496e-06	-3.045759040854506550e-01
1.630602390983769692e+04	2.634136164799014637e+02	-4.786105689300137230e-06	-3.045393214894382417e-01
1.630604564896812371e+04	2.635382663169262401e+02	-4.781567980103880530e-06	-3.045028453910254562e-01
1.630606738809855051e+04	2.636571183424913443e+02	-4.777246442630103035e-06	-3.044664752316775802e-01
1.630608912722897730e+04	2.637701802577080343e+02	-4.773139945987654435e-06	-3.044302104567849221e-01
1.630611086635940228e+04	2.638774628670315678e+02	-4.769247291810725443e-06	-3.043940505156275123e-01
1.630613260548982907e+04	2.639789797292587537e+02	-4.765567226847968991e-06	-3.043579948613382991e-01
1.630615434462025587e+04	2.640747467840837430e+02	-4.762098456275177304e-06	-3.043220429508677327e-01
1.630617608375068266e+04	2.641647819590228892e+02	-4.758839657571666177e-06	-3.042861942449482382e-01
1.630619782288110764e+04	2.642491047617555182e+02	-4.755789494794512314e-06	-3.042504482080605199e-01
1.630621956201153444e+04	2.643277358630904246e+02	-4.752946633080983889e-06	-3.042148043083983122e-01
1.630624130114196123e+04	2.644006966758684030e+02	-4.750309753207476679e-06	-3.041792620178344064e-01
1.630626304027238803e+04	2.644680089351492711e+02	-4.747877566032985197e-06	-3.041438208118884545e-01
1.630628477940281300e+04	2.645296942850024493e+02	-4.745648826657140671e-06	-3.041084801696934403e-01
1.630630651853323980e+04	2.645857738771242680e+02	-4.743622348126340850e-06	-3.040732395739619287e-01
1.630632825766366659e+04	2.646362679863497078e+02	-4.741797014527141251e-06	-3.040380985109558121e-01
1.630634999679409339e+04	2.646811956479012338e+02	-4.740171793313527141e-06	-3.040030564704535032e-01
1.630637173592452018e+04	2.647205743209434559e+02	-4.738745746723666595e-06	-3.039681129457185715e-01
1.630639347505494516e+04	2.647544195826690725e+02	-4.737518042152695448e-06	-3.039332674334692674e-01
1.630641521418537195e+04	2.647827448567617807e+02	-4.736487961360194983e-06	-3.038985194338472695e-01
1.630643695331579875e+04	2.648055611796414155e+02	-4.735654908404959405e-06	-3.038638684503880416e-01
1.630645869244622554e+04	2.648228770074219938e+02	-4.735018416214390262e-06	-3.038293139899905793e-01
1.630648043157665052e+04	2.648346980660023178e+02	-4.734578151711960413e-06	-3.037948555628883773e-01
1.630650217070707731e+04	2.648410272461656518e+02	-4.734333919443163024e-06	-3.037604926826197316e-01
1.630652390983750411e+04	2.648418645450030340e+02	-4.734285663657690499e-06	-3.037262248659995389e-01
1.630654564896793090e+04	2.648372070543895234e+02	-4.734433468824073911e-06	-3.036920516330902653e-01
1.630656738809835588e+04	2.648270489966583909e+02	-4.734777558570959584e-06	-3.036579725071740232e-01
1.630658912722878267e+04	2.648113818070242473e+02	-4.735318293067873149e-06	-3.036239870147257602e-01
1.630661086635920947e+04	2.647901942617220357e+02	-4.736056164876497068e-06	-3.035900946853842264e-01
1.630663260548963626e+04	2.647634726502566309e+02	-4.736991793321327779e-06	-3.035562950519256065e-01
1.630665434462006124e+04	2.647312009896019731e+02	-4.738125917445949608e-06	-3.035225876502373743e-01
1.630667608375048803e+04	2.646933612776688847e+02	-4.739459387637659382e-06	-3.034889720192907037e-01
1.630669782288091483e+04	2.646499337828602734e+02	-4.740993156018730609e-06	-3.034554477011149332e-01
1.630671956201134162e+04	2.646008973660828474e+02	-4.742728265717016637e-06	-3.034220142407715870e-01
1.630674130114176660e+04	2.645462298311742870e+02	-4.744665839141723788e-06	-3.033886711863291175e-01
1.630676304027219339e+04	2.644859082993447146e+02	-4.746807065401711013e-06	-3.033554180888362595e-01
1.630678477940262019e+04	2.644199096029238945e+02	-4.749153187013943756e-06	-3.033222545022994376e-01
1.630680651853304698e+04	2.643482106934610556e+02	-4.751705486057845111e-06	-3.032891799836558433e-01
1.630682825766347196e+04	2.642707890590330067e+02	-4.754465269938144973e-06	-3.032561940927502309e-01
1.630684999679389875e+04	2.641876231454942285e+02	-4.757433856923384884e-06	-3.032232963923102709e-01
1.630687173592432555e+04	2.640986927763452741e+02	-4.760612561630130609e-06	-3.031904864479228467e-01
1.630689347505475234e+04	2.640039795658966568e+02	-4.764002680624054936e-06	-3.031577638280105735e-01
1.630691521418517732e+04	2.639034673204805586e+02	-4.767605478307898662e-06	-3.031251281038084278e-01
1.630693695331560411e+04	2.637971424225937085e+02	-4.771422173263769905e-06	-3.030925788493402107e-01
1.630695869244603091e+04	2.636849941930631758e+02	-4.775453925212107956e-06	-3.030601156413967323e-01
1.630698043157645770e+04	2.635670152265698789e+02	-4.779701822743657867e-06	-3.030277380595114423e-01
1.630700217070688450e+04	2.634432016961956151e+02	-4.784166871972303690e-06	-3.029954456859407785e-01
1.630702390983730947e+04	2.633135536230184925e+02	-4.788849986246797931e-06	-3.029632381056393542e-01
1.630704564896773627e+04	2.631780751072058138e+02	-4.793751977048189742e-06	-3.029311149062400288e-01
1.630706738809816306e+04	2.630367745175087180e+02	-4.798873546186997223e-06	-3.028990756780313154e-01
1.630708912722858986e+04	2.628896646365712400e+02	-4.804215279400060162e-06	-3.028671200139365083e-01
1.630711086635901484e+04	2.627367627599886077e+02	-4.809777641431988271e-06	-3.028352475094920337e-01
1.630713260548944163e+04	2.625780907476154766e+02	-4.815560972670052601e-06	-3.028034577628272994e-01
1.630715434461986843e+04	2.624136750261951079e+02	-4.821565487384317889e-06	-3.027717503746436001e-01
1.630717608375029522e+04	2.622435465429715578e+02	-4.827791273607434186e-06	-3.027401249481928569e-01
1.630719782288072020e+04	2.620677406705361818e+02	-4.834238294670572712e-06	-3.027085810892589657e-01
1.630721956201114699e+04	2.618862970637489411e+02	-4.840906392393661100e-06	-3.026771184061367026e-01
1.630724130114157379e+04	2.616992594701616213e+02	-4.847795291909695125e-06	-3.026457365096121843e-01
1.630726304027200058e+04	2.615066754959203195e+02	-4.854904608084960452e-06	-3.026144350129427174e-01
1.630728477940242556e+04	2.613085963296741170e+02	-4.862233853478807069e-06	-3.025832135318388127e-01
1.630730651853285235e+04	2.611050764275206575e+02	-4.869782447769321814e-06	-3.025520716844429803e-01
1.630732825766327915e+04	2.608961731624888216e+02	-4.877549728554601880e-06	-3.025210090913122984e-01
1.630734999679370594e+04	2.606819464424926878e+02	-4.885534963423283484e-06	-3.024900253753992074e-01
1.630737173592413092e+04	2.604624583010689776e+02	-4.893737363173367688e-06	-3.024591201620325798e-01
1.630739347505455771e+04	2.602377724655408429e+02	-4.902156096044521988e-06	-3.024282930788994017e-01
1.630741521418498451e+04	2.600079539075257458e+02	-4.910790302817051614e-06	-3.023975437560263990e-01
1.630743695331541130e+04	2.597730683809160155e+02	-4.919639112619857739e-06	-3.023668718257626620e-01
1.630745869244583628e+04	2.595331819526128356e+02	-4.928701659280838126e-06	-3.023362769227608271e-01
1.630748043157626307e+04	2.592883605313834892e+02	-4.937977098045828424e-06	-3.023057586839600352e-01
1.630750217070668987e+04	2.590386694002345394e+02	-4.947464622486807891e-06	-3.022753167485680570e-01
1.630752390983711666e+04	2.587841727576468429e+02	-4.957163481417013519e-06	-3.022449507580443062e-01
1.630754564896754346e+04	2.585249332729150069e+02	-4.967072995628996323e-06	-3.022146603560821876e-01
1.630756738809796843e+04	2.582610116606603583e+02	-4.977192574272802976e-06	-3.021844451885927763e-01
1.630758912722839523e+04	2.579924662793558809e+02	-4.987521730693988438e-06	-3.021543049036869988e-01
1.630761086635882202e+04	2.577193527584082631e+02	-4.998060097556696354e-06	-3.021242391516598680e-01
1.630763260548924882e+04	2.574417236580012514e+02	-5.008807441083749964e-06	-3.020942475849736630e-01
1.630765434461967379e+04	2.571596281654992140e+02	-5.019763674255133879e-06	-3.020643298582416092e-01
1.630767608375010059e+04	2.568731118317789992e+02	-5.030928868817194182e-06	-3.020344856282113355e-01
1.630769782288052738e+04	2.565822163503659112e+02	-5.042303265967843852e-06	-3.020047145537496092e-01
1.630771956201095418e+04	2.562869793817346817e+02	-5.053887285597800648e-06	-3.019750162958258488e-01
1.630774130114137915e+04	2.559874344245945395e+02	-5.065681533983848545e-06	-3.019453905174962483e-01
1.630776304027180595e+04	2.556836107354066598e+02	-5.077686809847738109e-06	-3.019158368838892326e-01
1.630778477940223274e+04	2.553755332968013079e+02	-5.089904108713074093e-06	-3.018863550621887493e-01
1.630780651853265954e+04	2.550632228349721515e+02	-5.102334625512030541e-06	-3.018569447216196133e-01
1.630782825766308451e+04	2.547466958855383723e+02	-5.114979755414241977e-06	-3.018276055334329633e-01
1.630784999679351131e+04	2.544259649067770965e+02	-5.127841092870807297e-06	-3.017983371708899965e-01
1.630787173592393810e+04	2.541010384385638474e+02	-5.140920428887696640e-06	-3.017691393092481467e-01
1.630789347505436490e+04	2.537719213048124516e+02	-5.154219746563381920e-06	-3.017400116257458187e-01
1.630791521418478987e+04	2.534386148566791519e+02	-5.167741214946705313e-06	-3.017109537995884549e-01
1.630793695331521667e+04	2.531011172533131344e+02	-5.181487181290923891e-06	-3.016819655119329924e-01
1.630795869244564346e+04	2.527594237764887168e+02	-5.195460161799313935e-06	-3.016530464458748173e-01
1.630798043157607026e+04	2.524135271750529057e+02	-5.209662830976080449e-06	-3.016241962864331105e-01
1.630800217070649524e+04	2.520634180347668405e+02	-5.224098009713656139e-06	-3.015954147205364144e-01
1.630802390983692203e+04	2.517090851688296880e+02	-5.238768652262868978e-06	-3.015667014370090326e-01
1.630804564896734882e+04	2.513505160241265060e+02	-5.253677832246913745e-06	-3.015380561265576520e-01
1.630806738809777562e+04	2.509876970980674855e+02	-5.268828727892104397e-06	-3.015094784817570206e-01
1.630808912722820060e+04	2.506206143607732599e+02	-5.284224606658805978e-06	-3.014809681970365696e-01
1.630811086635862739e+04	2.502492536773031588e+02	-5.299868809464252516e-06	-3.014525249686673125e-01
1.630813260548905419e+04	2.498736012246409643e+02	-5.315764734695207554e-06	-3.014241484947488003e-01
1.630815434461948098e+04	2.494936438982332163e+02	-5.331915822212105250e-06	-3.013958384751950770e-01
1.630817608374990778e+04	2.491093697030145506e+02	-5.348325537548130153e-06	-3.013675946117221893e-01
1.630819782288033275e+04	2.487207681240597879e+02	-5.364997356505851917e-06	-3.013394166078352532e-01
1.630821956201075955e+04	2.483278304722691132e+02	-5.381934750351113093e-06	-3.013113041688155747e-01
1.630824130114118634e+04	2.479305502008068061e+02	-5.399141171798702158e-06	-3.012832570017077716e-01
1.630826304027161314e+04	2.475289231883918717e+02	-5.416620041976740065e-06	-3.012552748153077276e-01
1.630828477940203811e+04	2.471229479859571541e+02	-5.434374738547053329e-06	-3.012273573201493249e-01
1.630830651853246491e+04	2.467126260236551616e+02	-5.452408585147214962e-06	-3.011995042284929536e-01
1.630832825766289170e+04	2.462979617756872983e+02	-5.470724842306277051e-06	-3.011717152543124665e-01
1.630834999679331850e+04	2.458789628809668955e+02	-5.489326699970682476e-06	-3.011439901132832997e-01
1.630837173592374347e+04	2.454556402181751764e+02	-5.508217271759944957e-06	-3.011163285227707043e-01
1.630839347505417027e+04	2.450280079343466753e+02	-5.527399591052839300e-06	-3.010887302018174783e-01
1.630841521418459706e+04	2.445960834266961115e+02	-5.546876608985266236e-06	-3.010611948711321983e-01
1.630843695331502386e+04	2.441598872779889575e+02	-5.566651194419760925e-06	-3.010337222530777290e-01
1.630845869244544883e+04	2.437194431463375963e+02	-5.586726135924888677e-06	-3.010063120716590102e-01
1.630848043157587563e+04	2.432747776108728033e+02	-5.607104145780129378e-06	-3.009789640525126764e-01
1.630850217070630242e+04	2.428259199752966424e+02	-5.627787865999055094e-06	-3.009516779228935124e-01
1.630852390983672922e+04	2.423729020318445748e+02	-5.648779876340351684e-06	-3.009244534116661263e-01
1.630854564896715419e+04	2.419157577886876140e+02	-5.670082704253227358e-06	-3.008972902492904056e-01
1.630856738809758099e+04	2.414545231642559315e+02	-5.691698836680947235e-06	-3.008701881678131906e-01
1.630858912722800778e+04	2.409892356523888850e+02	-5.713630733624054292e-06	-3.008431469008550629e-01
