# time(us)	tip(nm)	Fts(nN)	Xb(nm)
1.630437173592529507e+04	4.391614364881449006e+01	-1.683647807770456131e-04	-3.812256281461834373e-01
1.630439347505572005e+04	4.393656922459194192e+01	-1.682097358232415322e-04	-3.811801299196949655e-01
1.630441521418614684e+04	4.395577180568545117e+01	-1.680641250988344987e-04	-3.811347652793677376e-01
1.630443695331657364e+04	4.397373976997443634e+01	-1.679280003637720505e-04	-3.810895335160074393e-01
1.630445869244700043e+04	4.399046208856574225e+01	-1.678014109381404512e-04	-3.810444339255169566e-01
1.630448043157742541e+04	4.400592836732177915e+01	-1.676844034680909166e-04	-3.809994658088478037e-01
1.630450217070785220e+04	4.402012888708266303e+01	-1.675770216987753161e-04	-3.809546284719511067e-01
1.630452390983827900e+04	4.403305464221785570e+01	-1.674793062564153561e-04	-3.809099212257304745e-01
1.630454564896870579e+04	4.404469737715220390e+01	-1.673912944415602961e-04	-3.808653433859934268e-01
1.630456738809913077e+04	4.405504962052692974e+01	-1.673130200354867945e-04	-3.808208942734053193e-01
1.630458912722955756e+04	4.406410471667525997e+01	-1.672445131215750014e-04	-3.807765732134432701e-01
1.630461086635998436e+04	4.407185685411466380e+01	-1.671857999233595181e-04	-3.807323795363504182e-01
1.630463260549041115e+04	4.407830109078444281e+01	-1.671369026607960107e-04	-3.806883125770910148e-01
1.630465434462083795e+04	4.408343337578635612e+01	-1.670978394261184890e-04	-3.806443716753065698e-01
1.630467608375126292e+04	4.408725056741882753e+01	-1.670686240804728807e-04	-3.806005561752716648e-01
1.630469782288168972e+04	4.408975044732939352e+01	-1.670492661723200849e-04	-3.805568654258508765e-01
1.630471956201211651e+04	4.409093173064747617e+01	-1.670397708783959048e-04	-3.805132987804559219e-01
1.630474130114254331e+04	4.409079407199767076e+01	-1.670401389677969865e-04	-3.804698555970045248e-01
1.630476304027296828e+04	4.408933806733354999e+01	-1.670503667895487879e-04	-3.804265352378780052e-01
1.630478477940339508e+04	4.408656525157223172e+01	-1.670704462837841635e-04	-3.803833370698800342e-01
1.630480651853382187e+04	4.408247809205063561e+01	-1.671003650164382137e-04	-3.803402604641977214e-01
1.630482825766424867e+04	4.407707997786422993e+01	-1.671401062371443823e-04	-3.802973047963599806e-01
1.630484999679467364e+04	4.407037520518954921e+01	-1.671896489597942022e-04	-3.802544694461989505e-01
1.630487173592510044e+04	4.406236895872935122e+01	-1.672489680650064345e-04	-3.802117537978108586e-01
1.630489347505552723e+04	4.405306728945630113e+01	-1.673180344235515875e-04	-3.801691572395179963e-01
1.630491521418595403e+04	4.404247708886590829e+01	-1.673968150395742371e-04	-3.801266791638300835e-01
1.630493695331637900e+04	4.403060605998144439e+01	-1.674852732122709086e-04	-3.800843189674068534e-01
1.630495869244680580e+04	4.401746268538308726e+01	-1.675833687145104054e-04	-3.800420760510219154e-01
1.630498043157723259e+04	4.400305619255938439e+01	-1.676910579867270780e-04	-3.799999498195247849e-01
1.630500217070765939e+04	4.398739651690238617e+01	-1.678082943442747331e-04	-3.799579396818059118e-01
1.630502390983808436e+04	4.397049426268544892e+01	-1.679350281963132015e-04	-3.799160450507605424e-01
1.630504564896851116e+04	4.395236066237924177e+01	-1.680712072741915686e-04	-3.798742653432533589e-01
1.630506738809893795e+04	4.393300753467082131e+01	-1.682167768672178300e-04	-3.798325999800838959e-01
1.630508912722936475e+04	4.391244724155787793e+01	-1.683716800636442647e-04	-3.797910483859523456e-01
1.630511086635978972e+04	4.389069264489232580e+01	-1.685358579946635556e-04	-3.797496099894249744e-01
1.630513260549021652e+04	4.386775706274464426e+01	-1.687092500792014744e-04	-3.797082842229010380e-01
1.630515434462064331e+04	4.384365422595507766e+01	-1.688917942673010518e-04	-3.796670705225793085e-01
1.630517608375107011e+04	4.381839823522604149e+01	-1.690834272799336235e-04	-3.796259683284257669e-01
1.630519782288149690e+04	4.379200351909548061e+01	-1.692840848431350004e-04	-3.795849770841406290e-01
1.630521956201192188e+04	4.376448479311334694e+01	-1.694937019144428269e-04	-3.795440962371267601e-01
1.630524130114234868e+04	4.373585702051972390e+01	-1.697122128997256851e-04	-3.795033252384580891e-01
1.630526304027277547e+04	4.370613537469865406e+01	-1.699395518586227104e-04	-3.794626635428481887e-01
1.630528477940320226e+04	4.367533520365245181e+01	-1.701756526969616125e-04	-3.794221106086186901e-01
1.630530651853362724e+04	4.364347199671056643e+01	-1.704204493446951447e-04	-3.793816658976700840e-01
1.630532825766405404e+04	4.361056135365330988e+01	-1.706738759180816481e-04	-3.793413288754509116e-01
1.630534999679448083e+04	4.357661895639558480e+01	-1.709358668650436846e-04	-3.793010990109276781e-01
1.630537173592490763e+04	4.354166054333850155e+01	-1.712063570928536052e-04	-3.792609757765557643e-01
1.630539347505533260e+04	4.350570188646003089e+01	-1.714852820775251312e-04	-3.792209586482500616e-01
1.630541521418575940e+04	4.346875877117673070e+01	-1.717725779545302303e-04	-3.791810471053560505e-01
1.630543695331618619e+04	4.343084697897106849e+01	-1.720681815907053021e-04	-3.791412406306216010e-01
1.630545869244661299e+04	4.339198227274071229e+01	-1.723720306374589689e-04	-3.791015387101686618e-01
1.630548043157703796e+04	4.335218038478985392e+01	-1.726840635656473090e-04	-3.790619408334656160e-01
1.630550217070746476e+04	4.331145700734671067e+01	-1.730042196827286452e-04	-3.790224464932990256e-01
1.630552390983789155e+04	4.326982778545841057e+01	-1.733324391330536506e-04	-3.789830551857471530e-01
1.630554564896831835e+04	4.322730831208259161e+01	-1.736686628823859771e-04	-3.789437664101531489e-01
1.630556738809874332e+04	4.318391412516677974e+01	-1.740128326879718246e-04	-3.789045796690971857e-01
1.630558912722917012e+04	4.313966070648081796e+01	-1.743648910556918643e-04	-3.788654944683716441e-01
1.630561086635959691e+04	4.309456348194490971e+01	-1.747247811860245755e-04	-3.788265103169542458e-01
1.630563260549002371e+04	4.304863782317734433e+01	-1.750924469107340974e-04	-3.787876267269819075e-01
1.630565434462044868e+04	4.300189904997095169e+01	-1.754678326223463466e-04	-3.787488432137266492e-01
1.630567608375087548e+04	4.295436243339570836e+01	-1.758508831986210275e-04	-3.787101592955686713e-01
1.630569782288130227e+04	4.290604319921889243e+01	-1.762415439243344149e-04	-3.786715744939727624e-01
1.630571956201172907e+04	4.285695653133038263e+01	-1.766397604127742252e-04	-3.786330883334625974e-01
1.630574130114215404e+04	4.280711757486334790e+01	-1.770454785294042494e-04	-3.785947003415974788e-01
1.630576304027258084e+04	4.275654143870493584e+01	-1.774586443201892376e-04	-3.785564100489469119e-01
1.630578477940300763e+04	4.270524319710233385e+01	-1.778792039470674410e-04	-3.785182169890673465e-01
1.630580651853343443e+04	4.265323789008330380e+01	-1.783071036330287254e-04	-3.784801206984789723e-01
1.630582825766386122e+04	4.260054052242744405e+01	-1.787422896191958579e-04	-3.784421207166416279e-01
1.630584999679428620e+04	4.254716606094622477e+01	-1.791847081362195413e-04	-3.784042165859317630e-01
1.630587173592471299e+04	4.249312942985407204e+01	-1.796343053921750307e-04	-3.783664078516195128e-01
1.630589347505513979e+04	4.243844550404087812e+01	-1.800910275790067129e-04	-3.783286940618468819e-01
1.630591521418556658e+04	4.238312910008627910e+01	-1.805548208993842821e-04	-3.782910747676037633e-01
1.630593695331599156e+04	4.232719496488871158e+01	-1.810256316156480712e-04	-3.782535495227073996e-01
1.630595869244641835e+04	4.227065776181702716e+01	-1.815034061222856358e-04	-3.782161178837787352e-01
1.630598043157684515e+04	4.221353205432866673e+01	-1.819880910431427850e-04	-3.781787794102223765e-01
1.630600217070727194e+04	4.215583228703491869e+01	-1.824796333543124492e-04	-3.781415336642033886e-01
1.630602390983769692e+04	4.209757276423177785e+01	-1.829779805333602016e-04	-3.781043802106276996e-01
1.630604564896812371e+04	4.203876762595297834e+01	-1.834830807352541668e-04	-3.780673186171193412e-01
1.630606738809855051e+04	4.197943082163822481e+01	-1.839948829950680822e-04	-3.780303484540005754e-01
1.630608912722897730e+04	4.191957608154714876e+01	-1.845133374572134046e-04	-3.779934692942715224e-01
1.630611086635940228e+04	4.185921688608417668e+01	-1.850383956306452416e-04	-3.779566807135885664e-01
1.630613260548982907e+04	4.179836643323304912e+01	-1.855700106691757212e-04	-3.779199822902449823e-01
1.630615434462025587e+04	4.173703760433103582e+01	-1.861081376757208275e-04	-3.778833736051505077e-01
1.630617608375068266e+04	4.167524292844180422e+01	-1.866527340290062391e-04	-3.778468542418117471e-01
1.630619782288110764e+04	4.161299454561150668e+01	-1.872037597309689346e-04	-3.778104237863122439e-01
1.630621956201153444e+04	4.155030416931513315e+01	-1.877611777728205463e-04	-3.777740818272929402e-01
1.630624130114196123e+04	4.148718304841971616e+01	-1.883249545174804315e-04	-3.777378279559334695e-01
1.630626304027238803e+04	4.142364192900554798e+01	-1.888950600958564459e-04	-3.777016617659326170e-01
1.630628477940281300e+04	4.135969101639847167e+01	-1.894714688142401981e-04	-3.776655828534888903e-01
1.630630651853323980e+04	4.129533993777274503e+01	-1.900541595699128863e-04	-3.776295908172832005e-01
1.630632825766366659e+04	4.123059770568744398e+01	-1.906431162718980044e-04	-3.775936852584588777e-01
1.630634999679409339e+04	4.116547268291763828e+01	-1.912383282636884359e-04	-3.775578657806042404e-01
1.630637173592452018e+04	4.109997254893602303e+01	-1.918397907446960039e-04	-3.775221319897339445e-01
1.630639347505494516e+04	4.103410426839070624e+01	-1.924475051871191839e-04	-3.774864834942711078e-01
1.630641521418537195e+04	4.096787406191070602e+01	-1.930614797449313220e-04	-3.774509199050297137e-01
1.630643695331579875e+04	4.090128737955281224e+01	-1.936817296517079681e-04	-3.774154408351962919e-01
1.630645869244622554e+04	4.083434887718189543e+01	-1.943082776040955511e-04	-3.773800459003128771e-01
1.630648043157665052e+04	4.076706239605069015e+01	-1.949411541278241536e-04	-3.773447347182602996e-01
1.630650217070707731e+04	4.069943094581750387e+01	-1.955803979233150611e-04	-3.773095069092391451e-01
1.630652390983750411e+04	4.063145669120852688e+01	-1.962260561881108603e-04	-3.772743620957546007e-01
1.630654564896793090e+04	4.056314094249711388e+01	-1.968781849135812676e-04	-3.772392999025988014e-01
1.630656738809835588e+04	4.049448414993673850e+01	-1.975368491535957468e-04	-3.772043199568341776e-01
1.630658912722878267e+04	4.042548590224698302e+01	-1.982021232631315242e-04	-3.771694218877767457e-01
1.630661086635920947e+04	4.035614492921161656e+01	-1.988740911050975672e-04	-3.771346053269800103e-01
1.630663260548963626e+04	4.028645910840985778e+01	-1.995528462239667435e-04	-3.770998699082188654e-01
1.630665434462006124e+04	4.021642547606024465e+01	-2.002384919851629122e-04	-3.770652152674725532e-01
1.630667608375048803e+04	4.014604024191731924e+01	-2.009311416795049111e-04	-3.770306410429097865e-01
1.630669782288091483e+04	4.007529880812185041e+01	-2.016309185923814468e-04	-3.769961468748726507e-01
1.630671956201134162e+04	4.000419579186728924e+01	-2.023379560376993352e-04	-3.769617324058605612e-01
1.630674130114176660e+04	3.993272505170816800e+01	-2.030523973570345171e-04	-3.769273972805149975e-01
1.630676304027219339e+04	3.986087971730113821e+01	-2.037743958847849869e-04	-3.768931411456038494e-01
1.630678477940262019e+04	3.978865222233822152e+01	-2.045041148804860841e-04	-3.768589636500072060e-01
1.630680651853304698e+04	3.971603434040048342e+01	-2.052417274298140256e-04	-3.768248644447007023e-01
1.630682825766347196e+04	3.964301722343565615e+01	-2.059874163161307169e-04	-3.767908431827414195e-01
1.630684999679389875e+04	3.956959144253857374e+01	-2.067413738647482467e-04	-3.767568995192531189e-01
1.630687173592432555e+04	3.949574703069534110e+01	-2.075038017623801422e-04	-3.767230331114109765e-01
1.630689347505475234e+04	3.942147352713546127e+01	-2.082749108545147159e-04	-3.766892436184279269e-01
1.630691521418517732e+04	3.934676002292557229e+01	-2.090549209236773447e-04	-3.766555307015390097e-01
1.630693695331560411e+04	3.927159520743110477e+01	-2.098440604517506664e-04	-3.766218940239879909e-01
1.630695869244603091e+04	3.919596741526876826e+01	-2.106425663696862103e-04	-3.765883332510123749e-01
1.630698043157645770e+04	3.911986467337474238e+01	-2.114506837980682070e-04	-3.765548480498309147e-01
1.630700217070688450e+04	3.904327474781914020e+01	-2.122686657820703926e-04	-3.765214380896268476e-01
1.630702390983730947e+04	3.896618519000666225e+01	-2.130967730243985285e-04	-3.764881030415369034e-01
1.630704564896773627e+04	3.888858338191757014e+01	-2.139352736198188367e-04	-3.764548425786355956e-01
1.630706738809816306e+04	3.881045658006122068e+01	-2.147844427948234674e-04	-3.764216563759233414e-01
1.630708912722858986e+04	3.873179195783529849e+01	-2.156445626559215262e-04	-3.763885441103111407e-01
1.630711086635901484e+04	3.865257664600912335e+01	-2.165159219499154417e-04	-3.763555054606086969e-01
1.630713260548944163e+04	3.857279777107679308e+01	-2.173988158393809099e-04	-3.763225401075102616e-01
1.630715434461986843e+04	3.849244249125763417e+01	-2.182935456963546047e-04	-3.762896477335818113e-01
1.630717608375029522e+04	3.841149802995315099e+01	-2.192004189170321824e-04	-3.762568280232481133e-01
1.630719782288072020e+04	3.832995170650504235e+01	-2.201197487600059402e-04	-3.762240806627799583e-01
1.630721956201114699e+04	3.824779096413563195e+01	-2.210518542102852917e-04	-3.761914053402803937e-01
1.630724130114157379e+04	3.816500339498877992e+01	-2.219970598710387728e-04	-3.761588017456734545e-01
1.630726304027200058e+04	3.808157676222784715e+01	-2.229556958846501652e-04	-3.761262695706901749e-01
1.630728477940242556e+04	3.799749901918537631e+01	-2.239280978843351060e-04	-3.760938085088572636e-01
1.630730651853285235e+04	3.791275832559647796e+01	-2.249146069771964184e-04	-3.760614182554838925e-01
1.630732825766327915e+04	3.782734306098548416e+01	-2.259155697592110375e-04	-3.760290985076497061e-01
1.630734999679370594e+04	3.774124183531061760e+01	-2.269313383622661160e-04	-3.759968489641926648e-01
1.630737173592413092e+04	3.765444349700572246e+01	-2.279622705329632023e-04	-3.759646693256969985e-01
1.630739347505455771e+04	3.756693713858962980e+01	-2.290087297425359031e-04	-3.759325592944812722e-01
1.630741521418498451e+04	3.747871210004360876e+01	-2.300710853268330693e-04	-3.759005185745859512e-01
1.630743695331541130e+04	3.738975797018285618e+01	-2.311497126549686397e-04	-3.758685468717621880e-01
1.630745869244583628e+04	3.730006458627253352e+01	-2.322449933248656878e-04	-3.758366438934604981e-01
1.630748043157626307e+04	3.720962203215739095e+01	-2.333573153836038716e-04	-3.758048093488179919e-01
1.630750217070668987e+04	3.711842063519108592e+01	-2.344870735701517811e-04	-3.757730429486476065e-01
1.630752390983711666e+04	3.702645096226288501e+01	-2.356346695777860125e-04	-3.757413444054271134e-01
1.630754564896754346e+04	3.693370381522795043e+01	-2.368005123332362835e-04	-3.757097134332865740e-01
1.630756738809796843e+04	3.684017022605100067e+01	-2.379850182893710408e-04	-3.756781497479981802e-01
1.630758912722839523e+04	3.674584145197344043e+01	-2.391886117280404161e-04	-3.756466530669652637e-01
1.630761086635882202e+04	3.665070897100934388e+01	-2.404117250695409467e-04	-3.756152231092098615e-01
1.630763260548924882e+04	3.655476447806729112e+01	-2.416547991850493023e-04	-3.755838595953630010e-01
1.630765434461967379e+04	3.645799988198261588e+01	-2.429182837082922725e-04	-3.755525622476539871e-01
1.630767608375010059e+04	3.636040730372808838e+01	-2.442026373426882326e-04	-3.755213307898980779e-01
1.630769782288052738e+04	3.626197907605163806e+01	-2.455083281601966837e-04	-3.754901649474878256e-01
1.630771956201095418e+04	3.616270774476541305e+01	-2.468358338881653240e-04	-3.754590644473807526e-01
1.630774130114137915e+04	3.606258607188556198e+01	-2.481856421805479925e-04	-3.754280290180900814e-01
1.630776304027180595e+04	3.596160704079107973e+01	-2.495582508700058518e-04	-3.753970583896733548e-01
1.630778477940223274e+04	3.585976386354001733e+01	-2.509541681975712237e-04	-3.753661522937223327e-01
1.630780651853265954e+04	3.575704999044712196e+01	-2.523739130167632853e-04	-3.753353104633533888e-01
1.630782825766308451e+04	3.565345912199181555e+01	-2.538180149692914329e-04	-3.753045326331960196e-01
1.630784999679351131e+04	3.554898522308940301e+01	-2.552870146297687884e-04	-3.752738185393841297e-01
1.630787173592393810e+04	3.544362253972162335e+01	-2.567814636171591829e-04	-3.752431679195445957e-01
1.630789347505436490e+04	3.533736561788494868e+01	-2.583019246710343544e-04	-3.752125805127886626e-01
1.630791521418478987e+04	3.523020932477875533e+01	-2.598489716910769081e-04	-3.751820560597009524e-01
1.630793695331521667e+04	3.512214887211903402e+01	-2.614231897386544694e-04	-3.751515943023303601e-01
1.630795869244564346e+04	3.501317984142849582e+01	-2.630251749996947584e-04	-3.751211949841798954e-01
1.630798043157607026e+04	3.490329821112053565e+01	-2.646555347085099790e-04	-3.750908578501974122e-01
1.630800217070649524e+04	3.479250038516315158e+01	-2.663148870326499944e-04	-3.750605826467653947e-01
1.630802390983692203e+04	3.468078322308000594e+01	-2.680038609192967919e-04	-3.750303691216922419e-01
1.630804564896734882e+04	3.456814407101997233e+01	-2.697230959041384507e-04	-3.750002170242019983e-01
1.630806738809777562e+04	3.445458079360336257e+01	-2.714732418841129939e-04	-3.749701261049258605e-01
1.630808912722820060e+04	3.434009180623358759e+01	-2.732549588558055831e-04	-3.749400961158924073e-01
1.630811086635862739e+04	3.422467610754724632e+01	-2.750689166217254651e-04	-3.749101268105179963e-01
1.630813260548905419e+04	3.410833331166362825e+01	-2.769157944670594417e-04	-3.748802179435983262e-01
1.630815434461948098e+04	3.399106367988684241e+01	-2.787962808098901979e-04	-3.748503692712989444e-01
1.630817608374990778e+04	3.387286815150994101e+01	-2.807110728282093408e-04	-3.748205805511463651e-01
1.630819782288033275e+04	3.375374837337103173e+01	-2.826608760673878038e-04	-3.747908515420194653e-01
1.630821956201075955e+04	3.363370672781614701e+01	-2.846464040320526045e-04	-3.747611820041392150e-01
1.630824130114118634e+04	3.351274635873252095e+01	-2.866683777665813226e-04	-3.747315716990620715e-01
1.630826304027161314e+04	3.339087119532884174e+01	-2.887275254286554072e-04	-3.747020203896692658e-01
1.630828477940203811e+04	3.326808597335626416e+01	-2.908245818604878710e-04	-3.746725278401590864e-01
1.630830651853246491e+04	3.314439625348474294e+01	-2.929602881624906552e-04	-3.746430938160383306e-01
1.630832825766289170e+04	3.301980843657321429e+01	-2.951353912742448555e-04	-3.746137180841130898e-01
1.630834999679331850e+04	3.289432977559994953e+01	-2.973506435676964124e-04	-3.745844004124807558e-01
1.630837173592374347e+04	3.276796838404978729e+01	-2.996068024575036619e-04	-3.745551405705213610e-01
1.630839347505417027e+04	3.264073324058798420e+01	-3.019046300334306200e-04	-3.745259383288900845e-01
1.630841521418459706e+04	3.251263418988531129e+01	-3.042448927195994250e-04	-3.744967934595074821e-01
1.630843695331502386e+04	3.238368193949656870e+01	-3.066283609652753353e-04	-3.744677057355521588e-01
1.630845869244544883e+04	3.225388805273234993e+01	-3.090558089716869761e-04	-3.744386749314523866e-01
1.630848043157587563e+04	3.212326493750340006e+01	-3.115280144591619387e-04	-3.744097008228784995e-01
1.630850217070630242e+04	3.199182583115634060e+01	-3.140457584785816378e-04	-3.743807831867335678e-01
1.630852390983672922e+04	3.185958478135907512e+01	-3.166098252708563496e-04	-3.743519218011472360e-01
1.630854564896715419e+04	3.172655662313320235e+01	-3.192210021777542456e-04	-3.743231164454652871e-01
1.630856738809758099e+04	3.159275695216851432e+01	-3.218800796070451055e-04	-3.742943669002445350e-01
1.630858912722800778e+04	3.145820209459159855e+01	-3.245878510544644106e-04	-3.742656729472431665e-01
