# time(us)	tip(nm)	Fts(nN)	Xb(nm)
1.630437173592529507e+04	1.404166307010093533e+02	-1.677897422655002263e-05	-3.466877950261981756e-01
1.630439347505572005e+04	1.405757540071886353e+02	-1.674110479944990816e-05	-3.466426499815357110e-01
1.630441521418614684e+04	1.407323867790413772e+02	-1.670395173680291599e-05	-3.465976465407609175e-01
1.630443695331657364e+04	1.408865016917277160e+02	-1.666751503020436509e-05	-3.465527839139216915e-01
1.630445869244700043e+04	1.410380711264530476e+02	-1.663179480614026924e-05	-3.465080613171127588e-01
1.630448043157742541e+04	1.411870672109593272e+02	-1.659679131722410355e-05	-3.464634779724137248e-01
1.630450217070785220e+04	1.413334618611387441e+02	-1.656250493342568004e-05	-3.464190331078236262e-01
1.630452390983827900e+04	1.414772268236280013e+02	-1.652893613331890191e-05	-3.463747259572004800e-01
1.630454564896870579e+04	1.416183337192319698e+02	-1.649608549537491534e-05	-3.463305557601989992e-01
1.630456738809913077e+04	1.417567540870214486e+02	-1.646395368932798415e-05	-3.462865217622108638e-01
1.630458912722955756e+04	1.418924594289452159e+02	-1.643254146764082656e-05	-3.462426232143047122e-01
1.630461086635998436e+04	1.420254212547887960e+02	-1.640184965709736247e-05	-3.461988593731678554e-01
1.630463260549041115e+04	1.421556111273154386e+02	-1.637187915054881115e-05	-3.461552295010484892e-01
1.630465434462083795e+04	1.422830007074212801e+02	-1.634263089883947157e-05	-3.461117328656979075e-01
1.630467608375126292e+04	1.424075617991377953e+02	-1.631410590293719688e-05	-3.460683687403155462e-01
1.630469782288168972e+04	1.425292663943173181e+02	-1.628630520629209663e-05	-3.460251364034929167e-01
1.630471956201211651e+04	1.426480867168399129e+02	-1.625922988744651321e-05	-3.459820351391590387e-01
1.630474130114254331e+04	1.427639952661868676e+02	-1.623288105291647221e-05	-3.459390642365268720e-01
1.630476304027296828e+04	1.428769648602301743e+02	-1.620725983036390907e-05	-3.458962229900394703e-01
1.630478477940339508e+04	1.429869686770969679e+02	-1.618236736207659914e-05	-3.458535106993192443e-01
1.630480651853382187e+04	1.430939802959736369e+02	-1.615820479877078683e-05	-3.458109266691146155e-01
1.630482825766424867e+04	1.431979737367286987e+02	-1.613477329372877919e-05	-3.457684702092503337e-01
1.630484999679467364e+04	1.432989234982393896e+02	-1.611207399728196952e-05	-3.457261406345769061e-01
1.630487173592510044e+04	1.433968045953205035e+02	-1.609010805164708404e-05	-3.456839372649210262e-01
1.630489347505552723e+04	1.434915925941671162e+02	-1.606887658612082839e-05	-3.456418594250366683e-01
1.630491521418595403e+04	1.435832636462335188e+02	-1.604838071263575653e-05	-3.455999064445576252e-01
1.630493695331637900e+04	1.436717945204848661e+02	-1.602862152167752109e-05	-3.455580776579488811e-01
1.630495869244680580e+04	1.437571626339712623e+02	-1.600960007856150626e-05	-3.455163724044612583e-01
1.630498043157723259e+04	1.438393460806874486e+02	-1.599131742006377118e-05	-3.454747900280836226e-01
1.630500217070765939e+04	1.439183236586934811e+02	-1.597377455139954795e-05	-3.454333298774986405e-01
1.630502390983808436e+04	1.439940748954870742e+02	-1.595697244354005799e-05	-3.453919913060370384e-01
1.630504564896851116e+04	1.440665800716284366e+02	-1.594091203085596484e-05	-3.453507736716334708e-01
1.630506738809893795e+04	1.441358202426322066e+02	-1.592559420907439839e-05	-3.453096763367827782e-01
1.630508912722936475e+04	1.442017772591525784e+02	-1.591101983353417206e-05	-3.452686986684966874e-01
1.630511086635978972e+04	1.442644337854981700e+02	-1.589718971772243513e-05	-3.452278400382615686e-01
1.630513260549021652e+04	1.443237733165225620e+02	-1.588410463207450837e-05	-3.451870998219955800e-01
1.630515434462064331e+04	1.443797801929470950e+02	-1.587176530301752622e-05	-3.451464774000078117e-01
1.630517608375107011e+04	1.444324396151772589e+02	-1.586017241223743824e-05	-3.451059721569572081e-01
1.630519782288149690e+04	1.444817376556856061e+02	-1.584932659614805495e-05	-3.450655834818118217e-01
1.630521956201192188e+04	1.445276612700332635e+02	-1.583922844554066416e-05	-3.450253107678096232e-01
1.630524130114234868e+04	1.445701983066120420e+02	-1.582987850539218483e-05	-3.449851534124176444e-01
1.630526304027277547e+04	1.446093375151881162e+02	-1.582127727480994389e-05	-3.449451108172954528e-01
1.630528477940320226e+04	1.446450685543321981e+02	-1.581342520709123279e-05	-3.449051823882539058e-01
1.630530651853362724e+04	1.446773819978205609e+02	-1.580632270987640368e-05	-3.448653675352196801e-01
1.630532825766405404e+04	1.447062693400893068e+02	-1.579997014537494923e-05	-3.448256656721964131e-01
1.630534999679448083e+04	1.447317230008232514e+02	-1.579436783064509469e-05	-3.447860762172275662e-01
1.630537173592490763e+04	1.447537363287566450e+02	-1.578951603790802676e-05	-3.447465985923619525e-01
1.630539347505533260e+04	1.447723036047590313e+02	-1.578541499487992033e-05	-3.447072322236151010e-01
1.630541521418575940e+04	1.447874200442721531e+02	-1.578206488510599140e-05	-3.446679765409352281e-01
1.630543695331618619e+04	1.447990817991596373e+02	-1.577946584828253892e-05	-3.446288309781678216e-01
1.630545869244661299e+04	1.448072859590198505e+02	-1.577761798055516820e-05	-3.445897949730207799e-01
1.630548043157703796e+04	1.448120305520081672e+02	-1.577652133478287544e-05	-3.445508679670300500e-01
1.630550217070746476e+04	1.448133145452036104e+02	-1.577617592075986874e-05	-3.445120494055257665e-01
1.630552390983789155e+04	1.448111378445454136e+02	-1.577658170538950120e-05	-3.444733387375997768e-01
1.630554564896831835e+04	1.448055012943547126e+02	-1.577773861280651473e-05	-3.444347354160703367e-01
1.630556738809874332e+04	1.447964066764493509e+02	-1.577964652444636463e-05	-3.443962388974521893e-01
1.630558912722917012e+04	1.447838567088457182e+02	-1.578230527906246853e-05	-3.443578486419222040e-01
1.630561086635959691e+04	1.447678550440334675e+02	-1.578571467269470019e-05	-3.443195641132889007e-01
1.630563260549002371e+04	1.447484062668013394e+02	-1.578987445859438981e-05	-3.442813847789601422e-01
1.630565434462044868e+04	1.447255158915777713e+02	-1.579478434711362357e-05	-3.442433101099122705e-01
1.630567608375087548e+04	1.446991903592463302e+02	-1.580044400556836654e-05	-3.442053395806593530e-01
1.630569782288130227e+04	1.446694370333827635e+02	-1.580685305808747054e-05	-3.441674726692235398e-01
1.630571956201172907e+04	1.446362641958579616e+02	-1.581401108546074018e-05	-3.441297088571033114e-01
1.630574130114215404e+04	1.445996810417406095e+02	-1.582191762500143229e-05	-3.440920476292454455e-01
1.630576304027258084e+04	1.445596976734290138e+02	-1.583057217044026163e-05	-3.440544884740154852e-01
1.630578477940300763e+04	1.445163250939364445e+02	-1.583997417186879870e-05	-3.440170308831678181e-01
1.630580651853343443e+04	1.444695751992531711e+02	-1.585012303575173147e-05	-3.439796743518181432e-01
1.630582825766386122e+04	1.444194607697022263e+02	-1.586101812502822129e-05	-3.439424183784144939e-01
1.630584999679428620e+04	1.443659954602078983e+02	-1.587265875932343751e-05	-3.439052624647093714e-01
1.630587173592471299e+04	1.443091937893960335e+02	-1.588504421529167361e-05	-3.438682061157322667e-01
1.630589347505513979e+04	1.442490711274443811e+02	-1.589817372711293552e-05	-3.438312488397624600e-01
1.630591521418556658e+04	1.441856436826074912e+02	-1.591204648716464885e-05	-3.437943901483010434e-01
1.630593695331599156e+04	1.441189284863432079e+02	-1.592666164689002020e-05	-3.437576295560458295e-01
1.630595869244641835e+04	1.440489433769720335e+02	-1.594201831788408583e-05	-3.437209665808630410e-01
1.630598043157684515e+04	1.439757069818109017e+02	-1.595811557321772240e-05	-3.436844007437628301e-01
1.630600217070727194e+04	1.438992386977260196e+02	-1.597495244901912529e-05	-3.436479315688726333e-01
1.630602390983769692e+04	1.438195586700628326e+02	-1.599252794633071145e-05	-3.436115585834110808e-01
1.630604564896812371e+04	1.437366877699168413e+02	-1.601084103325857392e-05	-3.435752813176643494e-01
1.630606738809855051e+04	1.436506475697247538e+02	-1.602989064742908412e-05	-3.435390993049594055e-01
1.630608912722897730e+04	1.435614603171613624e+02	-1.604967569876662790e-05	-3.435030120816401911e-01
1.630611086635940228e+04	1.434691489073434809e+02	-1.607019507260361920e-05	-3.434670191870434208e-01
1.630613260548982907e+04	1.433737368533539325e+02	-1.609144763313210167e-05	-3.434311201634739907e-01
1.630615434462025587e+04	1.432752482551107107e+02	-1.611343222720419918e-05	-3.433953145561804421e-01
1.630617608375068266e+04	1.431737077666199696e+02	-1.613614768848622630e-05	-3.433596019133327570e-01
1.630619782288110764e+04	1.430691405616657335e+02	-1.615959284196854577e-05	-3.433239817859981002e-01
1.630621956201153444e+04	1.429615722980010730e+02	-1.618376650883130525e-05	-3.432884537281167825e-01
1.630624130114196123e+04	1.428510290801186500e+02	-1.620866751166327499e-05	-3.432530172964815551e-01
1.630626304027238803e+04	1.427375374206905576e+02	-1.623429468002895827e-05	-3.432176720507127410e-01
1.630628477940281300e+04	1.426211242007804003e+02	-1.626064685637592120e-05	-3.431824175532374177e-01
1.630630651853323980e+04	1.425018166289416683e+02	-1.628772290227262454e-05	-3.431472533692658811e-01
1.630632825766366659e+04	1.423796421993239392e+02	-1.631552170496435703e-05	-3.431121790667712168e-01
1.630634999679409339e+04	1.422546286489237275e+02	-1.634404218423228126e-05	-3.430771942164659860e-01
1.630637173592452018e+04	1.421268039141187671e+02	-1.637328329953915943e-05	-3.430422983917817414e-01
1.630639347505494516e+04	1.419961960866371555e+02	-1.640324405744245694e-05	-3.430074911688475447e-01
1.630641521418537195e+04	1.418628333691141847e+02	-1.643392351925496939e-05	-3.429727721264690943e-01
1.630643695331579875e+04	1.417267440303994306e+02	-1.646532080892946601e-05	-3.429381408461069092e-01
1.630645869244622554e+04	1.415879563607747968e+02	-1.649743512114513024e-05	-3.429035969118571225e-01
1.630648043157665052e+04	1.414464986272495537e+02	-1.653026572956981053e-05	-3.428691399104299986e-01
1.630650217070707731e+04	1.413023990290996323e+02	-1.656381199527249062e-05	-3.428347694311307259e-01
1.630652390983750411e+04	1.411556856538138902e+02	-1.659807337525956227e-05	-3.428004850658375458e-01
1.630654564896793090e+04	1.410063864336111124e+02	-1.663304943110783924e-05	-3.427662864089847661e-01
1.630656738809835588e+04	1.408545291026857171e+02	-1.666873983766708223e-05	-3.427321730575403902e-01
1.630658912722878267e+04	1.407001411553369792e+02	-1.670514439180461114e-05	-3.426981446109881868e-01
1.630661086635920947e+04	1.405432498051283119e+02	-1.674226302116588568e-05	-3.426642006713088717e-01
1.630663260548963626e+04	1.403838819452158191e+02	-1.678009579292418966e-05	-3.426303408429596242e-01
1.630665434462006124e+04	1.402220641099786747e+02	-1.681864292249454003e-05	-3.425965647328566011e-01
1.630667608375048803e+04	1.400578224380701613e+02	-1.685790478218761586e-05	-3.425628719503552855e-01
1.630669782288091483e+04	1.398911826370007532e+02	-1.689788190978086776e-05	-3.425292621072327792e-01
1.630671956201134162e+04	1.397221699493517235e+02	-1.693857501698577093e-05	-3.424957348176693728e-01
1.630674130114176660e+04	1.395508091207060772e+02	-1.697998499779144191e-05	-3.424622896982300602e-01
1.630676304027219339e+04	1.393771243693694544e+02	-1.702211293666757669e-05	-3.424289263678467754e-01
1.630678477940262019e+04	1.392011393579414573e+02	-1.706496011661139922e-05	-3.423956444478008510e-01
1.630680651853304698e+04	1.390228771667832746e+02	-1.710852802702581661e-05	-3.423624435617056427e-01
1.630682825766347196e+04	1.388423602694171848e+02	-1.715281837141767804e-05	-3.423293233354880449e-01
1.630684999679389875e+04	1.386596105098746818e+02	-1.719783307490882593e-05	-3.422962833973727803e-01
1.630687173592432555e+04	1.384746490820001554e+02	-1.724357429155396249e-05	-3.422633233778638040e-01
1.630689347505475234e+04	1.382874965107045284e+02	-1.729004441146275348e-05	-3.422304429097284273e-01
1.630691521418517732e+04	1.380981726351466534e+02	-1.733724606772559990e-05	-3.421976416279804978e-01
1.630693695331560411e+04	1.379066965938150133e+02	-1.738518214314546957e-05	-3.421649191698628023e-01
1.630695869244603091e+04	1.377130868114624036e+02	-1.743385577678067781e-05	-3.421322751748320790e-01
1.630698043157645770e+04	1.375173609878445120e+02	-1.748327037030548821e-05	-3.420997092845416976e-01
1.630700217070688450e+04	1.373195360881980776e+02	-1.753342959419831171e-05	-3.420672211428256726e-01
1.630702390983730947e+04	1.371196283353889953e+02	-1.758433739376874248e-05	-3.420348103956828423e-01
1.630704564896773627e+04	1.369176532036519518e+02	-1.763599799503728452e-05	-3.420024766912614922e-01
1.630706738809816306e+04	1.367136254138384857e+02	-1.768841591048287679e-05	-3.419702196798425353e-01
1.630708912722858986e+04	1.365075589300847412e+02	-1.774159594467527266e-05	-3.419380390138250791e-01
1.630711086635901484e+04	1.362994669578084199e+02	-1.779554319981014956e-05	-3.419059343477102164e-01
1.630713260548944163e+04	1.360893619429386376e+02	-1.785026308116661670e-05	-3.418739053380860926e-01
1.630715434461986843e+04	1.358772555722878224e+02	-1.790576130250669105e-05	-3.418419516436130845e-01
1.630717608375029522e+04	1.356631587749687071e+02	-1.796204389143740210e-05	-3.418100729250082015e-01
1.630719782288072020e+04	1.354470817247659795e+02	-1.801911719475647442e-05	-3.417782688450307638e-01
1.630721956201114699e+04	1.352290338433733439e+02	-1.807698788380198104e-05	-3.417465390684669146e-01
1.630724130114157379e+04	1.350090238044116404e+02	-1.813566295982625931e-05	-3.417148832621165755e-01
1.630726304027200058e+04	1.347870595381478722e+02	-1.819514975941376739e-05	-3.416833010947771254e-01
1.630728477940242556e+04	1.345631482368433751e+02	-1.825545595996186179e-05	-3.416517922372300231e-01
1.630730651853285235e+04	1.343372963606647659e+02	-1.831658958524127047e-05	-3.416203563622272066e-01
1.630732825766327915e+04	1.341095096441000294e+02	-1.837855901105309728e-05	-3.415889931444751615e-01
1.630734999679370594e+04	1.338797931028311723e+02	-1.844137297099603890e-05	-3.415577022606235413e-01
1.630737173592413092e+04	1.336481510410235103e+02	-1.850504056235670276e-05	-3.415264833892485141e-01
1.630739347505455771e+04	1.334145870590022014e+02	-1.856957125213278041e-05	-3.414953362108416601e-01
1.630741521418498451e+04	1.331791040612959307e+02	-1.863497488319711975e-05	-3.414642604077945953e-01
1.630743695331541130e+04	1.329417042650367478e+02	-1.870126168060878789e-05	-3.414332556643863703e-01
1.630745869244583628e+04	1.327023892087177614e+02	-1.876844225807323906e-05	-3.414023216667698146e-01
1.630748043157626307e+04	1.324611597613169920e+02	-1.883652762455250205e-05	-3.413714581029579365e-01
1.630750217070668987e+04	1.322180161318088381e+02	-1.890552919102265664e-05	-3.413406646628121544e-01
1.630752390983711666e+04	1.319729578790897619e+02	-1.897545877737350650e-05	-3.413099410380278642e-01
1.630754564896754346e+04	1.317259839223561926e+02	-1.904632861944297094e-05	-3.412792869221217273e-01
1.630756738809796843e+04	1.314770925519804052e+02	-1.911815137617520451e-05	-3.412487020104199020e-01
1.630758912722839523e+04	1.312262814409341729e+02	-1.919094013688997608e-05	-3.412181860000443878e-01
1.630761086635882202e+04	1.309735476568196191e+02	-1.926470842864755928e-05	-3.411877385899004800e-01
1.630763260548924882e+04	1.307188876745701123e+02	-1.933947022369135015e-05	-3.411573594806648901e-01
1.630765434461967379e+04	1.304622973898873965e+02	-1.941523994694863869e-05	-3.411270483747733673e-01
1.630767608375010059e+04	1.302037721334847333e+02	-1.949203248356754520e-05	-3.410968049764077636e-01
1.630769782288052738e+04	1.299433066862075634e+02	-1.956986318646679446e-05	-3.410666289914844329e-01
1.630771956201095418e+04	1.296808952951024025e+02	-1.964874788387375659e-05	-3.410365201276419622e-01
1.630774130114137915e+04	1.294165316905049963e+02	-1.972870288682447665e-05	-3.410064780942299034e-01
1.630776304027180595e+04	1.291502091042146958e+02	-1.980974499659935332e-05	-3.409765026022954504e-01
1.630778477940223274e+04	1.288819202888208224e+02	-1.989189151206729740e-05	-3.409465933645735025e-01
1.630780651853265954e+04	1.286116575382398537e+02	-1.997516023691064168e-05	-3.409167500954733976e-01
1.630782825766308451e+04	1.283394127095174611e+02	-2.005956948670410019e-05	-3.408869725110686422e-01
1.630784999679351131e+04	1.280651772459410154e+02	-2.014513809582114281e-05	-3.408572603290846437e-01
1.630787173592393810e+04	1.277889422015026639e+02	-2.023188542414175421e-05	-3.408276132688875526e-01
1.630789347505436490e+04	1.275106982667400644e+02	-2.031983136353722322e-05	-3.407980310514735489e-01
1.630791521418478987e+04	1.272304357959755521e+02	-2.040899634410908942e-05	-3.407685133994563520e-01
1.630793695331521667e+04	1.269481448359607896e+02	-2.049940134016086762e-05	-3.407390600370579503e-01
1.630795869244564346e+04	1.266638151559248087e+02	-2.059106787588374984e-05	-3.407096706900957783e-01
1.630798043157607026e+04	1.263774362790091459e+02	-2.068401803073963177e-05	-3.406803450859732796e-01
1.630800217070649524e+04	1.260889975150641931e+02	-2.077827444452778942e-05	-3.406510829536680274e-01
1.630802390983692203e+04	1.257984879947651535e+02	-2.087386032212405900e-05	-3.406218840237218992e-01
1.630804564896734882e+04	1.255058967049961183e+02	-2.097079943788512021e-05	-3.405927480282295305e-01
1.630806738809777562e+04	1.252112125254368777e+02	-2.106911613971324812e-05	-3.405636747008286558e-01
1.630808912722820060e+04	1.249144242662748212e+02	-2.116883535278043583e-05	-3.405346637766893392e-01
1.630811086635862739e+04	1.246155207069531201e+02	-2.126998258291476105e-05	-3.405057149925027060e-01
1.630813260548905419e+04	1.243144906358532751e+02	-2.137258391965530190e-05	-3.404768280864721719e-01
1.630815434461948098e+04	1.240113228908011394e+02	-2.147666603898531570e-05	-3.404480027983016188e-01
1.630817608374990778e+04	1.237060064002744753e+02	-2.158225620575725368e-05	-3.404192388691872351e-01
1.630819782288033275e+04	1.233985302251817160e+02	-2.168938227582716875e-05	-3.403905360418053028e-01
1.630821956201075955e+04	1.230888836010722116e+02	-2.179807269791870982e-05	-3.403618940603037046e-01
1.630824130114118634e+04	1.227770559806324968e+02	-2.190835651524146969e-05	-3.403333126702915989e-01
1.630826304027161314e+04	1.224630370763167946e+02	-2.202026336689080527e-05	-3.403047916188294830e-01
1.630828477940203811e+04	1.221468169029553223e+02	-2.213382348905963676e-05	-3.402763306544189792e-01
1.630830651853246491e+04	1.218283858201815235e+02	-2.224906771609540590e-05	-3.402479295269948412e-01
1.630832825766289170e+04	1.215077345745161068e+02	-2.236602748143864944e-05	-3.402195879879130747e-01
1.630834999679331850e+04	1.211848543409477941e+02	-2.248473481848030150e-05	-3.401913057899432768e-01
1.630837173592374347e+04	1.208597367638481188e+02	-2.260522236137915155e-05	-3.401630826872583113e-01
1.630839347505417027e+04	1.205323739970637007e+02	-2.272752334588025439e-05	-3.401349184354247601e-01
1.630841521418459706e+04	1.202027587430311968e+02	-2.285167161017776874e-05	-3.401068127913947636e-01
1.630843695331502386e+04	1.198708842907654315e+02	-2.297770159586618881e-05	-3.400787655134953624e-01
1.630845869244544883e+04	1.195367445525785541e+02	-2.310564834902418730e-05	-3.400507763614205037e-01
1.630848043157587563e+04	1.192003340993953628e+02	-2.323554752147586781e-05	-3.400228450962206606e-01
1.630850217070630242e+04	1.188616481945379491e+02	-2.336743537227372979e-05	-3.399949714802955603e-01
1.630852390983672922e+04	1.185206828258642844e+02	-2.350134876944707667e-05	-3.399671552773835814e-01
1.630854564896715419e+04	1.181774347361552628e+02	-2.363732519205822224e-05	-3.399393962525542046e-01
1.630856738809758099e+04	1.178319014516566199e+02	-2.377540273260789818e-05	-3.399116941721979646e-01
1.630858912722800778e+04	1.174840813086945701e+02	-2.391562009982919565e-05	-3.398840488040187902e-01
