# time(us)	tip(nm)	Fts(nN)	Xb(nm)
1.630437173592529507e+04	1.585265437191317517e+02	-1.317724141735532060e-05	-3.411456729683144951e-01
1.630439347505572005e+04	1.587260085830992580e+02	-1.314421647278864518e-05	-3.411002774889538847e-01
1.630441521418614684e+04	1.589228667224984690e+02	-1.311174381178197486e-05	-3.410550267677927572e-01
1.630443695331657364e+04	1.591170930480070922e+02	-1.307982215161925149e-05	-3.410099199860127106e-01
1.630445869244700043e+04	1.593086611633334257e+02	-1.304845047772319452e-05	-3.409649563311871190e-01
1.630448043157742541e+04	1.594975434044137614e+02	-1.301762803436685626e-05	-3.409201349972108552e-01
1.630450217070785220e+04	1.596837108897369149e+02	-1.298735431392890898e-05	-3.408754551842326785e-01
1.630452390983827900e+04	1.598671335814983081e+02	-1.295762904477179370e-05	-3.408309160985869557e-01
1.630454564896870579e+04	1.600477803571630773e+02	-1.292845217783771858e-05	-3.407865169527271032e-01
1.630456738809913077e+04	1.602256190908961742e+02	-1.289982387207236872e-05	-3.407422569651614719e-01
1.630458912722955756e+04	1.604006167442057347e+02	-1.287174447879886782e-05	-3.406981353603873441e-01
1.630461086635998436e+04	1.605727394650402573e+02	-1.284421452517676630e-05	-3.406541513688284284e-01
1.630463260549041115e+04	1.607419526944829897e+02	-1.281723469689045476e-05	-3.406103042267717429e-01
1.630465434462083795e+04	1.609082212801010030e+02	-1.279080582021983463e-05	-3.405665931763062759e-01
1.630467608375126292e+04	1.610715095949300917e+02	-1.276492884365264405e-05	-3.405230174652619235e-01
1.630469782288168972e+04	1.612317816610121781e+02	-1.273960481920234662e-05	-3.404795763471498704e-01
1.630471956201211651e+04	1.613890012763510242e+02	-1.271483488359860434e-05	-3.404362690811034153e-01
1.630474130114254331e+04	1.615431321441156740e+02	-1.269062023951772891e-05	-3.403930949318197396e-01
1.630476304027296828e+04	1.616941380028927995e+02	-1.266696213701986482e-05	-3.403500531695032860e-01
1.630478477940339508e+04	1.618419827567831817e+02	-1.264386185535678678e-05	-3.403071430698074162e-01
1.630480651853382187e+04	1.619866306041397479e+02	-1.262132068530897236e-05	-3.402643639137812870e-01
1.630482825766424867e+04	1.621280461637622068e+02	-1.259933991220499865e-05	-3.402217149878130620e-01
1.630484999679467364e+04	1.622661945973945024e+02	-1.257792079976782272e-05	-3.401791955835757886e-01
1.630487173592510044e+04	1.624010417274203348e+02	-1.255706457492260358e-05	-3.401368049979755503e-01
1.630489347505552723e+04	1.625325541487053158e+02	-1.253677241369062044e-05	-3.400945425330970662e-01
1.630491521418595403e+04	1.626606993336079654e+02	-1.251704542828062436e-05	-3.400524074961529530e-01
1.630493695331637900e+04	1.627854457292640689e+02	-1.249788465547618768e-05	-3.400103991994323782e-01
1.630495869244680580e+04	1.629067628463380117e+02	-1.247929104640299712e-05	-3.399685169602497670e-01
1.630498043157723259e+04	1.630246213385388785e+02	-1.246126545774498832e-05	-3.399267601008968409e-01
1.630500217070765939e+04	1.631389930723080113e+02	-1.244380864446226124e-05	-3.398851279485917143e-01
1.630502390983808436e+04	1.632498511861990949e+02	-1.242692125404772586e-05	-3.398436198354311544e-01
1.630504564896851116e+04	1.633571701395948708e+02	-1.241060382234268657e-05	-3.398022350983434525e-01
1.630506738809893795e+04	1.634609257505294124e+02	-1.239485677091504143e-05	-3.397609730790406846e-01
1.630508912722936475e+04	1.635610952225108292e+02	-1.237968040598721795e-05	-3.397198331239723035e-01
1.630511086635978972e+04	1.636576571603683590e+02	-1.236507491888488882e-05	-3.396788145842796758e-01
1.630513260549021652e+04	1.637505915752752514e+02	-1.235104038796123423e-05	-3.396379168157508399e-01
1.630515434462064331e+04	1.638398798792219679e+02	-1.233757678193678095e-05	-3.395971391787756533e-01
1.630517608375107011e+04	1.639255048693362085e+02	-1.232468396458017245e-05	-3.395564810383017718e-01
1.630519782288149690e+04	1.640074507025616128e+02	-1.231236170064147206e-05	-3.395159417637917398e-01
1.630521956201192188e+04	1.640857028613154114e+02	-1.230060966293725987e-05	-3.394755207291799692e-01
1.630524130114234868e+04	1.641602481108453730e+02	-1.228942744047565732e-05	-3.394352173128301620e-01
1.630526304027277547e+04	1.642310744490992249e+02	-1.227881454749864449e-05	-3.393950308974936214e-01
1.630528477940320226e+04	1.642981710499975634e+02	-1.226877043331134217e-05	-3.393549608702688958e-01
1.630530651853362724e+04	1.643615282010749183e+02	-1.225929449275990927e-05	-3.393150066225602002e-01
1.630532825766405404e+04	1.644211372365072350e+02	-1.225038607721444995e-05	-3.392751675500378927e-01
1.630534999679448083e+04	1.644769904665901379e+02	-1.224204450590932273e-05	-3.392354430525984510e-01
1.630537173592490763e+04	1.645290811047653676e+02	-1.223426907749068478e-05	-3.391958325343263914e-01
1.630539347505533260e+04	1.645774031933046615e+02	-1.222705908162040453e-05	-3.391563354034540789e-01
1.630541521418575940e+04	1.646219515287701824e+02	-1.222041381048673461e-05	-3.391169510723255898e-01
1.630543695331618619e+04	1.646627215883555948e+02	-1.221433257007420377e-05	-3.390776789573574646e-01
1.630545869244661299e+04	1.646997094581890337e+02	-1.220881469104992829e-05	-3.390385184790025708e-01
1.630548043157703796e+04	1.647329117646419263e+02	-1.220385953912903026e-05	-3.389994690617131323e-01
1.630550217070746476e+04	1.647623256096352122e+02	-1.219946652478939230e-05	-3.389605301339050358e-01
1.630552390983789155e+04	1.647879485108732922e+02	-1.219563511221458062e-05	-3.389217011279211378e-01
1.630554564896831835e+04	1.648097783478596909e+02	-1.219236482735382423e-05	-3.388829814799970697e-01
1.630556738809874332e+04	1.648278133144637252e+02	-1.218965526499953602e-05	-3.388443706302254887e-01
1.630558912722917012e+04	1.648420518787127946e+02	-1.218750609479489221e-05	-3.388058680225227159e-01
1.630561086635959691e+04	1.648524927503814297e+02	-1.218591706609754807e-05	-3.387674731045937082e-01
1.630563260549002371e+04	1.648591348568377555e+02	-1.218488801163982310e-05	-3.387291853278991405e-01
1.630565434462044868e+04	1.648619773274919851e+02	-1.218441884994033093e-05	-3.386910041476219879e-01
1.630567608375087548e+04	1.648610194870712462e+02	-1.218450958643754654e-05	-3.386529290226351074e-01
1.630569782288130227e+04	1.648562608578232869e+02	-1.218516031333117565e-05	-3.386149594154683751e-01
1.630571956201172907e+04	1.648477011706245037e+02	-1.218637120813343021e-05	-3.385770947922773777e-01
1.630574130114215404e+04	1.648353403848471146e+02	-1.218814253094738956e-05	-3.385393346228114386e-01
1.630576304027258084e+04	1.648191787167149300e+02	-1.219047462050603215e-05	-3.385016783803818652e-01
1.630578477940300763e+04	1.647992166757611869e+02	-1.219336788901998817e-05	-3.384641255418328054e-01
1.630580651853343443e+04	1.647754551088850690e+02	-1.219682281589716810e-05	-3.384266755875093291e-01
1.630582825766386122e+04	1.647478952514001946e+02	-1.220083994041097760e-05	-3.383893280012274518e-01
1.630584999679428620e+04	1.647165387843613189e+02	-1.220541985340740250e-05	-3.383520822702448250e-01
1.630587173592471299e+04	1.646813878973723035e+02	-1.221056318815284488e-05	-3.383149378852315925e-01
1.630589347505513979e+04	1.646424453559904748e+02	-1.221627061043589432e-05	-3.382778943402409699e-01
1.630591521418556658e+04	1.645997145727757811e+02	-1.222254280804559974e-05	-3.382409511326798790e-01
1.630593695331599156e+04	1.645531996809731652e+02	-1.222938047975756613e-05	-3.382041077632824688e-01
1.630595869244641835e+04	1.645029056097704085e+02	-1.223678432396569155e-05	-3.381673637360794182e-01
1.630598043157684515e+04	1.644488381600430102e+02	-1.224475502710287943e-05	-3.381307185583731223e-01
1.630600217070727194e+04	1.643910040794753513e+02	-1.225329325199784233e-05	-3.380941717407078273e-01
1.630602390983769692e+04	1.643294111359446674e+02	-1.226239962631729666e-05	-3.380577227968438736e-01
1.630604564896812371e+04	1.642640681880617990e+02	-1.227207473124322776e-05	-3.380213712437312168e-01
1.630606738809855051e+04	1.641949852517848285e+02	-1.228231909053381003e-05	-3.379851166014807284e-01
1.630608912722897730e+04	1.641221735620581796e+02	-1.229313316011388537e-05	-3.379489583933412145e-01
1.630611086635940228e+04	1.640456456284800026e+02	-1.230451731833602901e-05	-3.379128961456713820e-01
1.630613260548982907e+04	1.639654152840589063e+02	-1.231647185704790101e-05	-3.378769293879146374e-01
1.630615434462025587e+04	1.638814977261999388e+02	-1.232899697359333807e-05	-3.378410576525740505e-01
1.630617608375068266e+04	1.637939095491379931e+02	-1.234209276386625813e-05	-3.378052804751870974e-01
1.630619782288110764e+04	1.637026687671365153e+02	-1.235575921652583531e-05	-3.377695973943013463e-01
1.630621956201153444e+04	1.636077948278702081e+02	-1.236999620846979830e-05	-3.377340079514488114e-01
1.630624130114196123e+04	1.635093086155206095e+02	-1.238480350165025564e-05	-3.376985116911238594e-01
1.630626304027238803e+04	1.634072324432312655e+02	-1.240018074130273275e-05	-3.376631081607567864e-01
1.630628477940281300e+04	1.633015900346923104e+02	-1.241612745564428267e-05	-3.376277969106918353e-01
1.630630651853323980e+04	1.631924064947450006e+02	-1.243264305708175477e-05	-3.375925774941632707e-01
1.630632825766366659e+04	1.630797082690286857e+02	-1.244972684495536334e-05	-3.375574494672718973e-01
1.630634999679409339e+04	1.629635230928161036e+02	-1.246737800982639204e-05	-3.375224123889625227e-01
1.630637173592452018e+04	1.628438799293100772e+02	-1.248559563930177190e-05	-3.374874658210011980e-01
1.630639347505494516e+04	1.627208088977979514e+02	-1.250437872537184480e-05	-3.374526093279521799e-01
1.630641521418537195e+04	1.625943411921774384e+02	-1.252372617322131025e-05	-3.374178424771576146e-01
1.630643695331579875e+04	1.624645089904818178e+02	-1.254363681145751413e-05	-3.373831648387123350e-01
1.630645869244622554e+04	1.623313453561371773e+02	-1.256410940368498287e-05	-3.373485759854452093e-01
1.630648043157665052e+04	1.621948841317825725e+02	-1.258514266134005457e-05	-3.373140754928963814e-01
1.630650217070707731e+04	1.620551598265707014e+02	-1.260673525768587755e-05	-3.372796629392951218e-01
1.630652390983750411e+04	1.619122074979452748e+02	-1.262888584285501920e-05	-3.372453379055406764e-01
1.630654564896793090e+04	1.617660626289558081e+02	-1.265159305981507486e-05	-3.372110999751797289e-01
1.630656738809835588e+04	1.616167610022230008e+02	-1.267485556112259153e-05	-3.371769487343863614e-01
1.630658912722878267e+04	1.614643385717109254e+02	-1.269867202632094504e-05	-3.371428837719419591e-01
1.630661086635920947e+04	1.613088313334842496e+02	-1.272304117983117180e-05	-3.371089046792147270e-01
1.630663260548963626e+04	1.611502751966456799e+02	-1.274796180917804423e-05	-3.370750110501393726e-01
1.630665434462006124e+04	1.609887058556469697e+02	-1.277343278339002181e-05	-3.370412024811978990e-01
1.630667608375048803e+04	1.608241586651485022e+02	-1.279945307140914289e-05	-3.370074785713993437e-01
1.630669782288091483e+04	1.606566685185767369e+02	-1.282602176034687677e-05	-3.369738389222607933e-01
1.630671956201134162e+04	1.604862697314861180e+02	-1.285313807342214191e-05	-3.369402831377881768e-01
1.630674130114176660e+04	1.603129959307749175e+02	-1.288080138742230399e-05	-3.369068108244572257e-01
1.630676304027219339e+04	1.601368799507386029e+02	-1.290901124953183169e-05	-3.368734215911945440e-01
1.630678477940262019e+04	1.599579537368641411e+02	-1.293776739338081820e-05	-3.368401150493588458e-01
1.630680651853304698e+04	1.597762482581810559e+02	-1.296706975417361643e-05	-3.368068908127225813e-01
1.630682825766347196e+04	1.595917934288830793e+02	-1.299691848276863237e-05	-3.367737484974536177e-01
1.630684999679389875e+04	1.594046180398315187e+02	-1.302731395859149984e-05	-3.367406877220979755e-01
1.630687173592432555e+04	1.592147497004324634e+02	-1.305825680127761619e-05	-3.367077081075600109e-01
1.630689347505475234e+04	1.590222147912652417e+02	-1.308974788095427351e-05	-3.366748092770867062e-01
1.630691521418517732e+04	1.588270384277137453e+02	-1.312178832708813631e-05	-3.366419908562487961e-01
1.630693695331560411e+04	1.586292444347262176e+02	-1.315437953584078416e-05	-3.366092524729237812e-01
1.630695869244603091e+04	1.584288553327034776e+02	-1.318752317589222581e-05	-3.365765937572786637e-01
1.630698043157645770e+04	1.582258923343873391e+02	-1.322122119271026375e-05	-3.365440143417530172e-01
1.630700217070688450e+04	1.580203753524974104e+02	-1.325547581126221430e-05	-3.365115138610417223e-01
1.630702390983730947e+04	1.578123230177438359e+02	-1.329028953718359788e-05	-3.364790919520785906e-01
1.630704564896773627e+04	1.576017527067272681e+02	-1.332566515643727946e-05	-3.364467482540197119e-01
1.630706738809816306e+04	1.573886805791285894e+02	-1.336160573351435360e-05	-3.364144824082263563e-01
1.630708912722858986e+04	1.571731216234859119e+02	-1.339811460824639187e-05	-3.363822940582499310e-01
1.630711086635901484e+04	1.569550897107699257e+02	-1.343519539131488919e-05	-3.363501828498148272e-01
1.630713260548944163e+04	1.567345976548791384e+02	-1.347285195856040526e-05	-3.363181484308027103e-01
1.630715434461986843e+04	1.565116572791085048e+02	-1.351108844420900127e-05	-3.362861904512371436e-01
1.630717608375029522e+04	1.562862794875856309e+02	-1.354990923314664385e-05	-3.362543085632668238e-01
1.630719782288072020e+04	1.560584743406184316e+02	-1.358931895238523290e-05	-3.362225024211517033e-01
1.630721956201114699e+04	1.558282511328673934e+02	-1.362932246187429825e-05	-3.361907716812459479e-01
1.630724130114157379e+04	1.555956184732328893e+02	-1.366992484482113078e-05	-3.361591160019835600e-01
1.630726304027200058e+04	1.553605843653426462e+02	-1.371113139768950194e-05	-3.361275350438630016e-01
1.630728477940242556e+04	1.551231562875301506e+02	-1.375294762005224289e-05	-3.360960284694328171e-01
1.630730651853285235e+04	1.548833412712167785e+02	-1.379537920447560268e-05	-3.360645959432756458e-01
1.630732825766327915e+04	1.546411459766459870e+02	-1.383843202661487504e-05	-3.360332371319944000e-01
1.630734999679370594e+04	1.543965767649604288e+02	-1.388211213569943164e-05	-3.360019517041975545e-01
1.630737173592413092e+04	1.541496397656784438e+02	-1.392642574558209786e-05	-3.359707393304846579e-01
1.630739347505455771e+04	1.539003409386945407e+02	-1.397137922652252827e-05	-3.359395996834316223e-01
1.630741521418498451e+04	1.536486861300089970e+02	-1.401697909786713271e-05	-3.359085324375773451e-01
1.630743695331541130e+04	1.533946811204884284e+02	-1.406323202177860655e-05	-3.358775372694088324e-01
1.630745869244583628e+04	1.531383316670543309e+02	-1.411014479815697881e-05	-3.358466138573480975e-01
1.630748043157626307e+04	1.528796435358077588e+02	-1.415772436088143376e-05	-3.358157618817374512e-01
1.630750217070668987e+04	1.526186225267094301e+02	-1.420597777548723662e-05	-3.357849810248262901e-01
1.630752390983711666e+04	1.523552744895554554e+02	-1.425491223837656313e-05	-3.357542709707577178e-01
1.630754564896754346e+04	1.520896053311077765e+02	-1.430453507764417203e-05	-3.357236314055552784e-01
1.630756738809796843e+04	1.518216210133618915e+02	-1.435485375558076014e-05	-3.356930620171081903e-01
1.630758912722839523e+04	1.515513275430590170e+02	-1.440587587289753405e-05	-3.356625624951600773e-01
1.630761086635882202e+04	1.512787309526687523e+02	-1.445760917469505650e-05	-3.356321325312945358e-01
1.630763260548924882e+04	1.510038372731885943e+02	-1.451006155817949294e-05	-3.356017718189230337e-01
1.630765434461967379e+04	1.507266524992204211e+02	-1.456324108210777596e-05	-3.355714800532709208e-01
1.630767608375010059e+04	1.504471825468913835e+02	-1.461715597792331363e-05	-3.355412569313663829e-01
1.630769782288052738e+04	1.501654332052893324e+02	-1.467181466252246507e-05	-3.355111021520256198e-01
1.630771956201095418e+04	1.498814100821734883e+02	-1.472722575257221949e-05	-3.354810154158422431e-01
1.630774130114137915e+04	1.495951185448061267e+02	-1.478339808028011338e-05	-3.354509964251734533e-01
1.630776304027180595e+04	1.493065636568224477e+02	-1.484034071049866492e-05	-3.354210448841289383e-01
1.630778477940223274e+04	1.490157501121153416e+02	-1.489806295902949848e-05	-3.353911604985576056e-01
1.630780651853265954e+04	1.487226821667626666e+02	-1.495657441197637711e-05	-3.353613429760359810e-01
1.630782825766308451e+04	1.484273635700590148e+02	-1.501588494598137196e-05	-3.353315920258558291e-01
1.630784999679351131e+04	1.481297974957362840e+02	-1.507600474916661172e-05	-3.353019073590129406e-01
1.630787173592393810e+04	1.478299864744661249e+02	-1.513694434259247159e-05	-3.352722886881947528e-01
1.630789347505436490e+04	1.475279323287327884e+02	-1.519871460203496646e-05	-3.352427357277684150e-01
1.630791521418478987e+04	1.472236361111441454e+02	-1.526132677987853553e-05	-3.352132481937694641e-01
1.630793695331521667e+04	1.469170980472197812e+02	-1.532479252691581583e-05	-3.351838258038909446e-01
1.630795869244564346e+04	1.466083174836459762e+02	-1.538912391384501658e-05	-3.351544682774707518e-01
1.630798043157607026e+04	1.462972928429323360e+02	-1.545433345225520616e-05	-3.351251753354814733e-01
1.630800217070649524e+04	1.459840215853327265e+02	-1.552043411489378955e-05	-3.350959467005174552e-01
1.630802390983692203e+04	1.456685001788138720e+02	-1.558743935501545472e-05	-3.350667820967863642e-01
1.630804564896734882e+04	1.453507240777632319e+02	-1.565536312462004900e-05	-3.350376812500954204e-01
1.630806738809777562e+04	1.450306877110291737e+02	-1.572421989139695817e-05	-3.350086438878416284e-01
1.630808912722820060e+04	1.447083844797758161e+02	-1.579402465420640559e-05	-3.349796697390013400e-01
1.630811086635862739e+04	1.443838067655247812e+02	-1.586479295694265067e-05	-3.349507585341188198e-01
1.630813260548905419e+04	1.440569459486347057e+02	-1.593654090064043434e-05	-3.349219100052954756e-01
1.630815434461948098e+04	1.437277924373464089e+02	-1.600928515370520576e-05	-3.348931238861796444e-01
1.630817608374990778e+04	1.433963357073987481e+02	-1.608304296016681466e-05	-3.348643999119553238e-01
1.630819782288033275e+04	1.430625643520931192e+02	-1.615783214587891161e-05	-3.348357378193334566e-01
1.630821956201075955e+04	1.427264661425597581e+02	-1.623367112260822319e-05	-3.348071373465390521e-01
1.630824130114118634e+04	1.423880280978600297e+02	-1.631057888998155208e-05	-3.347785982333031374e-01
1.630826304027161314e+04	1.420472365644372417e+02	-1.638857503528298043e-05	-3.347501202208513771e-01
1.630828477940203811e+04	1.417040773043173942e+02	-1.646767973111811891e-05	-3.347217030518943592e-01
1.630830651853246491e+04	1.413585355913558033e+02	-1.654791373098706193e-05	-3.346933464706173811e-01
1.630832825766289170e+04	1.410105963147277919e+02	-1.662929836283204296e-05	-3.346650502226705681e-01
1.630834999679331850e+04	1.406602440887716625e+02	-1.671185552065035490e-05	-3.346368140551593817e-01
1.630837173592374347e+04	1.403074633682141439e+02	-1.679560765428626134e-05	-3.346086377166335168e-01
1.630839347505417027e+04	1.399522385677434784e+02	-1.688057775753815931e-05	-3.345805209570795191e-01
1.630841521418459706e+04	1.395945541848382163e+02	-1.696678935473768782e-05	-3.345524635279086834e-01
1.630843695331502386e+04	1.392343949247172077e+02	-1.705426648597880142e-05	-3.345244651819487269e-01
1.630845869244544883e+04	1.388717458262493665e+02	-1.714303369119095209e-05	-3.344965256734342973e-01
1.630848043157587563e+04	1.385065923876452416e+02	-1.723311599326766337e-05	-3.344686447579977573e-01
1.630850217070630242e+04	1.381389206907516325e+02	-1.732453888047514007e-05	-3.344408221926584157e-01
1.630852390983672922e+04	1.377687175227808041e+02	-1.741732828837771677e-05	-3.344130577358155887e-01
1.630854564896715419e+04	1.373959704943355007e+02	-1.751151058152545617e-05	-3.343853511472374973e-01
1.630856738809758099e+04	1.370206681526271950e+02	-1.760711253515618080e-05	-3.343577021880524414e-01
1.630858912722800778e+04	1.366428000888382996e+02	-1.770416131716839270e-05	-3.343301106207409168e-01
