# time(us)	tip(nm)	Fts(nN)	Xb(nm)
1.630437173592529507e+04	1.761128148577369643e+02	-1.068515434145702601e-05	-3.353766453936131708e-01
1.630439347505572005e+04	1.763562239291348419e+02	-1.065573620664343899e-05	-3.353309886502044979e-01
1.630441521418614684e+04	1.765968469375669372e+02	-1.062677358259474221e-05	-3.352854800335264840e-01
1.630443695331657364e+04	1.768346726997045550e+02	-1.059826304024710280e-05	-3.352401186930919486e-01
1.630445869244700043e+04	1.770696882636241583e+02	-1.057020143450358390e-05	-3.351949037851943980e-01
1.630448043157742541e+04	1.773018788140315678e+02	-1.054258591066852033e-05	-3.351498344728323087e-01
1.630450217070785220e+04	1.775312275940095503e+02	-1.051541390891903265e-05	-3.351049099256340202e-01
1.630452390983827900e+04	1.777577158444814245e+02	-1.048868316673371114e-05	-3.350601293197844055e-01
1.630454564896870579e+04	1.779813227623812395e+02	-1.046239171922310606e-05	-3.350154918379527613e-01
1.630456738809913077e+04	1.782020254782991913e+02	-1.043653789733215940e-05	-3.349709966692214214e-01
1.630458912722955756e+04	1.784197990541483705e+02	-1.041112032390933166e-05	-3.349266430090154234e-01
1.630461086635998436e+04	1.786346165011616449e+02	-1.038613790766286082e-05	-3.348824300590330649e-01
1.630463260549041115e+04	1.788464488182902699e+02	-1.036158983504892939e-05	-3.348383570271780685e-01
1.630465434462083795e+04	1.790552650508367094e+02	-1.033747556016056440e-05	-3.347944231274930793e-01
1.630467608375126292e+04	1.792610323689150391e+02	-1.031379479270923593e-05	-3.347506275800926079e-01
1.630469782288168972e+04	1.794637161651005783e+02	-1.029054748421241963e-05	-3.347069696110985815e-01
1.630471956201211651e+04	1.796632801704009239e+02	-1.026773381252127616e-05	-3.346634484525756736e-01
1.630474130114254331e+04	1.798596865874702075e+02	-1.024535416484036632e-05	-3.346200633424689652e-01
1.630476304027296828e+04	1.800528962397785619e+02	-1.022340911940847313e-05	-3.345768135245402175e-01
1.630478477940339508e+04	1.802428687352676207e+02	-1.020189942602368466e-05	-3.345336982483084753e-01
1.630480651853382187e+04	1.804295626428448429e+02	-1.018082598560856154e-05	-3.344907167689877836e-01
1.630482825766424867e+04	1.806129356799267214e+02	-1.016018982902063541e-05	-3.344478683474288450e-01
1.630484999679467364e+04	1.807929449091045626e+02	-1.013999209532126533e-05	-3.344051522500598450e-01
1.630487173592510044e+04	1.809695469419034453e+02	-1.012023400972070404e-05	-3.343625677488282766e-01
1.630489347505552723e+04	1.811426981475220543e+02	-1.010091686141977365e-05	-3.343201141211449290e-01
1.630491521418595403e+04	1.813123548643827121e+02	-1.008204198156828110e-05	-3.342777906498265450e-01
1.630493695331637900e+04	1.814784736122925324e+02	-1.006361072155782871e-05	-3.342355966230409203e-01
1.630495869244680580e+04	1.816410113030081561e+02	-1.004562443186167244e-05	-3.341935313342526137e-01
1.630498043157723259e+04	1.817999254470211667e+02	-1.002808444162695723e-05	-3.341515940821687125e-01
1.630500217070765939e+04	1.819551743544265605e+02	-1.001099203921500574e-05	-3.341097841706852645e-01
1.630502390983808436e+04	1.821067173278117366e+02	-9.994348453873722608e-06	-3.340681009088365405e-01
1.630504564896851116e+04	1.822545148451986563e+02	-9.978154838712611675e-06	-3.340265436107415220e-01
1.630506738809893795e+04	1.823985287311961088e+02	-9.962412255135353950e-06	-3.339851115955543848e-01
1.630508912722936475e+04	1.825387223146573206e+02	-9.947121658868356600e-06	-3.339438041874139840e-01
1.630511086635978972e+04	1.826750605713075117e+02	-9.932283887704726610e-06	-3.339026207153943937e-01
1.630513260549021652e+04	1.828075102499808224e+02	-9.917899651064296631e-06	-3.338615605134553355e-01
1.630515434462064331e+04	1.829360399813073457e+02	-9.903969521449442710e-06	-3.338206229203958264e-01
1.630517608375107011e+04	1.830606203679006114e+02	-9.890493927855721913e-06	-3.337798072798045523e-01
1.630519782288149690e+04	1.831812240553178981e+02	-9.877473151174106345e-06	-3.337391129400152923e-01
1.630521956201192188e+04	1.832978257832947122e+02	-9.864907321600590372e-06	-3.336985392540589568e-01
1.630524130114234868e+04	1.834104024169917864e+02	-9.852796418046360925e-06	-3.336580855796195122e-01
1.630526304027277547e+04	1.835189329582294704e+02	-9.841140269520543210e-06	-3.336177512789873512e-01
1.630528477940320226e+04	1.836233985369241850e+02	-9.829938558436073743e-06	-3.335775357190168267e-01
1.630530651853362724e+04	1.837237823831725336e+02	-9.819190825769001741e-06	-3.335374382710811214e-01
1.630532825766405404e+04	1.838200697806618678e+02	-9.808896477981631610e-06	-3.334974583110300594e-01
1.630534999679448083e+04	1.839122480023030448e+02	-9.799054795601506410e-06	-3.334575952191472514e-01
1.630537173592490763e+04	1.840003062291884817e+02	-9.789664943330964617e-06	-3.334178483801071846e-01
1.630539347505533260e+04	1.840842354541751718e+02	-9.780725981546113825e-06	-3.333782171829355878e-01
1.630541521418575940e+04	1.841640283715684347e+02	-9.772236879029972111e-06	-3.333387010209669654e-01
1.630543695331618619e+04	1.842396792545420681e+02	-9.764196526771868026e-06	-3.332992992918050179e-01
1.630545869244661299e+04	1.843111838220694096e+02	-9.756603752654861454e-06	-3.332600113972825073e-01
1.630548043157703796e+04	1.843785390972561800e+02	-9.749457336844133371e-06	-3.332208367434223995e-01
1.630550217070746476e+04	1.844417432590584269e+02	-9.742756027683115944e-06	-3.331817747403978958e-01
1.630552390983789155e+04	1.845007954894400086e+02	-9.736498557899406298e-06	-3.331428248024957961e-01
1.630554564896831835e+04	1.845556958180636968e+02	-9.730683660920548929e-06	-3.331039863480771968e-01
1.630556738809874332e+04	1.846064449666290841e+02	-9.725310087100112242e-06	-3.330652587995414637e-01
1.630558912722917012e+04	1.846530441949612680e+02	-9.720376619656160137e-06	-3.330266415832877080e-01
1.630561086635959691e+04	1.846954951509181626e+02	-9.715882090129296671e-06	-3.329881341296803687e-01
1.630563260549002371e+04	1.847337997261256533e+02	-9.711825393173702763e-06	-3.329497358730116874e-01
1.630565434462044868e+04	1.847679599194613047e+02	-9.708205500503454055e-06	-3.329114462514667916e-01
1.630567608375087548e+04	1.847979777101020034e+02	-9.705021473827100259e-06	-3.328732647070890560e-01
1.630569782288130227e+04	1.848238549418159096e+02	-9.702272476615797134e-06	-3.328351906857450748e-01
1.630571956201172907e+04	1.848455932200293717e+02	-9.699957784564935877e-06	-3.327972236370901338e-01
1.630574130114215404e+04	1.848631938230275296e+02	-9.698076794624595155e-06	-3.327593630145355141e-01
1.630576304027258084e+04	1.848766576284581333e+02	-9.696629032491759282e-06	-3.327216082752140758e-01
1.630578477940300763e+04	1.848859850561109113e+02	-9.695614158475282765e-06	-3.326839588799478942e-01
1.630580651853343443e+04	1.848911760277229916e+02	-9.695031971664337645e-06	-3.326464142932159529e-01
1.630582825766386122e+04	1.848922299443448765e+02	-9.694882412351053086e-06	-3.326089739831213921e-01
1.630584999679428620e+04	1.848891456815681806e+02	-9.695165562678737832e-06	-3.325716374213603665e-01
1.630587173592471299e+04	1.848819216026827803e+02	-9.695881645508340057e-06	-3.325344040831900161e-01
1.630589347505513979e+04	1.848705555895978989e+02	-9.697031021516637849e-06	-3.324972734473984337e-01
1.630591521418556658e+04	1.848550450911284031e+02	-9.698614184560848023e-06	-3.324602449962731909e-01
1.630593695331599156e+04	1.848353871880223949e+02	-9.700631755364745964e-06	-3.324233182155714728e-01
1.630595869244641835e+04	1.848115786738837301e+02	-9.703084473601218278e-06	-3.323864925944902127e-01
1.630598043157684515e+04	1.847836161509359556e+02	-9.705973188465634818e-06	-3.323497676256369493e-01
1.630600217070727194e+04	1.847514961393781050e+02	-9.709298847851870453e-06	-3.323131428049995728e-01
1.630602390983769692e+04	1.847152151989019444e+02	-9.713062486259996646e-06	-3.322766176319182918e-01
1.630604564896812371e+04	1.846747700607765239e+02	-9.717265211579718056e-06	-3.322401916090574892e-01
1.630606738809855051e+04	1.846301577687649456e+02	-9.721908190907246295e-06	-3.322038642423764121e-01
1.630608912722897730e+04	1.845813758270122662e+02	-9.726992635565490068e-06	-3.321676350411023049e-01
1.630611086635940228e+04	1.845284223529505994e+02	-9.732519785506968358e-06	-3.321315035177026531e-01
1.630613260548982907e+04	1.844712962331861661e+02	-9.738490893287254195e-06	-3.320954691878577059e-01
1.630615434462025587e+04	1.844099972802891898e+02	-9.744907207802401154e-06	-3.320595315704336081e-01
1.630617608375068266e+04	1.843445263883794780e+02	-9.751769957987623192e-06	-3.320236901874563662e-01
1.630619782288110764e+04	1.842748856854050530e+02	-9.759080336676070473e-06	-3.319879445640849802e-01
1.630621956201153444e+04	1.842010786800389610e+02	-9.766839484815764621e-06	-3.319522942285856315e-01
1.630624130114196123e+04	1.841231104011712887e+02	-9.775048476240107254e-06	-3.319167387123058144e-01
1.630626304027238803e+04	1.840409875280554388e+02	-9.783708303182180028e-06	-3.318812775496495782e-01
1.630628477940281300e+04	1.839547185092683037e+02	-9.792819862715922326e-06	-3.318459102780514369e-01
1.630630651853323980e+04	1.838643136687703645e+02	-9.802383944298304403e-06	-3.318106364379524442e-01
1.630632825766366659e+04	1.837697852974992259e+02	-9.812401218575183900e-06	-3.317754555727747690e-01
1.630634999679409339e+04	1.836711477290960488e+02	-9.822872227601045001e-06	-3.317403672288982142e-01
1.630637173592452018e+04	1.835684173985489167e+02	-9.833797376607755869e-06	-3.317053709556357366e-01
1.630639347505494516e+04	1.834616128827368300e+02	-9.845176927441618456e-06	-3.316704663052095214e-01
1.630641521418537195e+04	1.833507549220687167e+02	-9.857010993770495250e-06	-3.316356528327278896e-01
1.630643695331579875e+04	1.832358664226368603e+02	-9.869299538143791800e-06	-3.316009300961622053e-01
1.630645869244622554e+04	1.831169724385316897e+02	-9.882042370968702202e-06	-3.315662976563222841e-01
1.630648043157665052e+04	1.829941001342018865e+02	-9.895239151445441890e-06	-3.315317550768364097e-01
1.630650217070707731e+04	1.828672787269778155e+02	-9.908889390483204300e-06	-3.314973019241262975e-01
1.630652390983750411e+04	1.827365394101150002e+02	-9.922992455596983696e-06	-3.314629377673861677e-01
1.630654564896793090e+04	1.826019152569430162e+02	-9.937547577764166274e-06	-3.314286621785601517e-01
1.630656738809835588e+04	1.824634411069341979e+02	-9.952553860197836541e-06	-3.313944747323206430e-01
1.630658912722878267e+04	1.823211534347187808e+02	-9.968010288972949635e-06	-3.313603750060473696e-01
1.630661086635920947e+04	1.821750902032772785e+02	-9.983915745420923784e-06	-3.313263625798044121e-01
1.630663260548963626e+04	1.820252907027335709e+02	-1.000026902018806128e-05	-3.312924370363209969e-01
1.630665434462006124e+04	1.818717953763396906e+02	-1.001706882883472237e-05	-3.312585979609692921e-01
1.630667608375048803e+04	1.817146456354003305e+02	-1.003431382883434649e-05	-3.312248449417442564e-01
1.630669782288091483e+04	1.815538836650153200e+02	-1.005200263781546043e-05	-3.311911775692429338e-01
1.630671956201134162e+04	1.813895522226314654e+02	-1.007013385287488670e-05	-3.311575954366444141e-01
1.630674130114176660e+04	1.812216944314785110e+02	-1.008870607077795642e-05	-3.311240981396895156e-01
1.630676304027219339e+04	1.810503535710273013e+02	-1.010771790885050406e-05	-3.310906852766613007e-01
1.630678477940262019e+04	1.808755728666453138e+02	-1.012716802635876171e-05	-3.310573564483651476e-01
1.630680651853304698e+04	1.806973952806328896e+02	-1.014705514616674642e-05	-3.310241112581093215e-01
1.630682825766347196e+04	1.805158633068089955e+02	-1.016737807645656340e-05	-3.309909493116857671e-01
1.630684999679389875e+04	1.803310187707742784e+02	-1.018813573229535397e-05	-3.309578702173508469e-01
1.630687173592432555e+04	1.801429026379092306e+02	-1.020932715683313193e-05	-3.309248735858072998e-01
1.630689347505475234e+04	1.799515548310776296e+02	-1.023095154191909453e-05	-3.308919590301843128e-01
1.630691521418517732e+04	1.797570140598862451e+02	-1.025300824792940508e-05	-3.308591261660202010e-01
1.630693695331560411e+04	1.795593176632176267e+02	-1.027549682260771123e-05	-3.308263746112428683e-01
1.630695869244603091e+04	1.793585014665938786e+02	-1.029841701872974266e-05	-3.307937039861528206e-01
1.630698043157645770e+04	1.791545996557533158e+02	-1.032176881041638969e-05	-3.307611139134047362e-01
1.630700217070688450e+04	1.789476446676308115e+02	-1.034555240793406933e-05	-3.307286040179900910e-01
1.630702390983730947e+04	1.787376670997244617e+02	-1.036976827083836749e-05	-3.306961739272181178e-01
1.630704564896773627e+04	1.785246956386153556e+02	-1.039441711933515814e-05	-3.306638232707005409e-01
1.630706738809816306e+04	1.783087570081804927e+02	-1.041949994375408574e-05	-3.306315516803325916e-01
1.630708912722858986e+04	1.780898759378052034e+02	-1.044501801205036507e-05	-3.305993587902765762e-01
1.630711086635901484e+04	1.778680751506668685e+02	-1.047097287527420337e-05	-3.305672442369452790e-01
1.630713260548944163e+04	1.776433753719261404e+02	-1.049736637097025533e-05	-3.305352076589843646e-01
1.630715434461986843e+04	1.774157953564267416e+02	-1.052420062449407147e-05	-3.305032486972566130e-01
1.630717608375029522e+04	1.771853519352785611e+02	-1.055147804825702590e-05	-3.304713669948246557e-01
1.630719782288072020e+04	1.769520600804775086e+02	-1.057920133893577474e-05	-3.304395621969355434e-01
1.630721956201114699e+04	1.767159329865071982e+02	-1.060737347270659635e-05	-3.304078339510036488e-01
1.630724130114157379e+04	1.764769821676709967e+02	-1.063599769858899645e-05	-3.303761819065957894e-01
1.630726304027200058e+04	1.762352175697240853e+02	-1.066507753000563804e-05	-3.303446057154143523e-01
1.630728477940242556e+04	1.759906476942109350e+02	-1.069461673468771790e-05	-3.303131050312821393e-01
1.630730651853285235e+04	1.757432797337736758e+02	-1.072461932307537883e-05	-3.302816795101269354e-01
1.630732825766327915e+04	1.754931197165733465e+02	-1.075508953538165483e-05	-3.302503288099654655e-01
1.630734999679370594e+04	1.752401726578713408e+02	-1.078603182750519849e-05	-3.302190525908887397e-01
1.630737173592413092e+04	1.749844427167412277e+02	-1.081745085599249339e-05	-3.301878505150471210e-01
1.630739347505455771e+04	1.747259333558350818e+02	-1.084935146226260917e-05	-3.301567222466342821e-01
1.630741521418498451e+04	1.744646475021045262e+02	-1.088173865631786179e-05	-3.301256674518739942e-01
1.630743695331541130e+04	1.742005877063807020e+02	-1.091461760017165966e-05	-3.300946857990035288e-01
1.630745869244583628e+04	1.739337562997432087e+02	-1.094799359123007636e-05	-3.300637769582606684e-01
1.630748043157626307e+04	1.736641555446664427e+02	-1.098187204586563376e-05	-3.300329406018679412e-01
1.630750217070668987e+04	1.733917877790061084e+02	-1.101625848342217408e-05	-3.300021764040200201e-01
1.630752390983711666e+04	1.731166555509962848e+02	-1.105115851088578620e-05	-3.299714840408680683e-01
1.630754564896754346e+04	1.728387617435469394e+02	-1.108657780845161324e-05	-3.299408631905056399e-01
1.630756738809796843e+04	1.725581096862833590e+02	-1.112252211620751205e-05	-3.299103135329559677e-01
1.630758912722839523e+04	1.722747032539292036e+02	-1.115899722214431376e-05	-3.298798347501568640e-01
1.630761086635882202e+04	1.719885469498211137e+02	-1.119600895168899863e-05	-3.298494265259482305e-01
1.630763260548924882e+04	1.716996459735362919e+02	-1.123356315894096115e-05	-3.298190885460575150e-01
1.630765434461967379e+04	1.714080062718263946e+02	-1.127166571977321981e-05	-3.297888204980861659e-01
1.630767608375010059e+04	1.711136345722698309e+02	-1.131032252694026134e-05	-3.297586220714978644e-01
1.630769782288052738e+04	1.708165383992783006e+02	-1.134953948731213939e-05	-3.297284929576034251e-01
1.630771956201095418e+04	1.705167260723265770e+02	-1.138932252133083859e-05	-3.296984328495485839e-01
1.630774130114137915e+04	1.702142066865064010e+02	-1.142967756475966526e-05	-3.296684414423010634e-01
1.630776304027180595e+04	1.699089900757335556e+02	-1.147061057277066757e-05	-3.296385184326375284e-01
1.630778477940223274e+04	1.696010867591663214e+02	-1.151212752638803212e-05	-3.296086635191312619e-01
1.630780651853265954e+04	1.692905078716097762e+02	-1.155423444127831740e-05	-3.295788764021386208e-01
1.630782825766308451e+04	1.689772650788940780e+02	-1.159693737885041234e-05	-3.295491567837869340e-01
1.630784999679351131e+04	1.686613704794060027e+02	-1.164024245960119087e-05	-3.295195043679626790e-01
1.630787173592393810e+04	1.683428364931427552e+02	-1.168415587861554743e-05	-3.294899188602985474e-01
1.630789347505436490e+04	1.680216757398164589e+02	-1.172868392310309943e-05	-3.294603999681609552e-01
1.630791521418478987e+04	1.676979009076874831e+02	-1.177383299182911626e-05	-3.294309474006388294e-01
1.630793695331521667e+04	1.673715246149292284e+02	-1.181960961627285518e-05	-3.294015608685304519e-01
1.630795869244564346e+04	1.670425592654309526e+02	-1.186602048332453417e-05	-3.293722400843326903e-01
1.630798043157607026e+04	1.667110169010245500e+02	-1.191307245931164509e-05	-3.293429847622282303e-01
1.630800217070649524e+04	1.663769090521755913e+02	-1.196077261512736007e-05	-3.293137946180750841e-01
1.630802390983692203e+04	1.660402465892106534e+02	-1.200912825221771915e-05	-3.292846693693929350e-01
1.630804564896734882e+04	1.657010395761540167e+02	-1.205814692917152935e-05	-3.292556087353539218e-01
1.630806738809777562e+04	1.653592971292262064e+02	-1.210783648864635787e-05	-3.292266124367701496e-01
1.630808912722820060e+04	1.650150272820120563e+02	-1.215820508435664167e-05	-3.291976801960818655e-01
1.630811086635862739e+04	1.646682368592298928e+02	-1.220926120784563929e-05	-3.291688117373472444e-01
1.630813260548905419e+04	1.643189313609403257e+02	-1.226101371476215643e-05	-3.291400067862304546e-01
1.630815434461948098e+04	1.639671148589102074e+02	-1.231347185036502810e-05	-3.291112650699909437e-01
1.630817608374990778e+04	1.636127899067123508e+02	-1.236664527398374460e-05	-3.290825863174726140e-01
1.630819782288033275e+04	1.632559574649760350e+02	-1.242054408217231059e-05	-3.290539702590931648e-01
1.630821956201075955e+04	1.628966168430278572e+02	-1.247517883030548505e-05	-3.290254166268319902e-01
1.630824130114118634e+04	1.625347656579683644e+02	-1.253056055238151887e-05	-3.289969251542218531e-01
1.630826304027161314e+04	1.621703998120226515e+02	-1.258670077881330937e-05	-3.289684955763356733e-01
1.630828477940203811e+04	1.618035134887857964e+02	-1.264361155201048789e-05	-3.289401276297779786e-01
1.630830651853246491e+04	1.614340991687578537e+02	-1.270130543957881042e-05	-3.289118210526733588e-01
1.630832825766289170e+04	1.610621476643322580e+02	-1.275979554498796667e-05	-3.288835755846568620e-01
1.630834999679331850e+04	1.606876481741677196e+02	-1.281909551558724089e-05	-3.288553909668630038e-01
1.630837173592374347e+04	1.603105883566407783e+02	-1.287921954787738229e-05	-3.288272669419162741e-01
1.630839347505417027e+04	1.599309544218451720e+02	-1.294018238997802211e-05	-3.287992032539204801e-01
1.630841521418459706e+04	1.595487312413816312e+02	-1.300199934126152166e-05	-3.287711996484493082e-01
1.630843695331502386e+04	1.591639024749649707e+02	-1.306468624915706958e-05	-3.287432558725358334e-01
1.630845869244544883e+04	1.587764507126711919e+02	-1.312825950316116782e-05	-3.287153716746626930e-01
1.630848043157587563e+04	1.583863576314590489e+02	-1.319273602612389376e-05	-3.286875468047529281e-01
1.630850217070630242e+04	1.579936041644229761e+02	-1.325813326291238230e-05	-3.286597810141599907e-01
1.630852390983672922e+04	1.575981706810829337e+02	-1.332446916658469184e-05	-3.286320740556571418e-01
1.630854564896715419e+04	1.572000371768770890e+02	-1.339176218223752803e-05	-3.286044256834293464e-01
1.630856738809758099e+04	1.567991834699115259e+02	-1.346003122872033892e-05	-3.285768356530633927e-01
1.630858912722800778e+04	1.563955894029304545e+02	-1.352929567843521569e-05	-3.285493037215379553e-01
