# time(us)	tip(nm)	Fts(nN)	Xb(nm)
8.321201719796881662e+03	-6.407571452686232627e-01	-3.686879310811227217e+00	-6.407591935965133434e-01
8.321205186962828520e+03	-6.407400224729126181e-01	-3.687346897814042901e+00	-6.407414597936608169e-01
8.321208654128775379e+03	-6.407290100769278407e-01	-3.687634216689487765e+00	-6.407298363343976177e-01
8.321212121294722238e+03	-6.407241085116510693e-01	-3.687741261003807391e+00	-6.407243236734120329e-01
8.321215588460669096e+03	-6.407253179710046265e-01	-3.687668028737952408e+00	-6.407249220283325331e-01
8.321219055626615955e+03	-6.407326384118432472e-01	-3.687414522287217000e+00	-6.407316313797205565e-01
8.321222522792562813e+03	-6.407460695539562989e-01	-3.686980748461209600e+00	-6.407444514710719519e-01
8.321225989958509672e+03	-6.407656108800755534e-01	-3.686366718484214378e+00	-6.407633818088235289e-01
8.321229457124456530e+03	-6.407912616358941715e-01	-3.685572447995774326e+00	-6.407884216623710438e-01
8.321232924290403389e+03	-6.408230208300922381e-01	-3.684597957051645611e+00	-6.408195700640947345e-01
8.321236391456348429e+03	-6.408608872343719565e-01	-3.683443270125027702e+00	-6.408568258093926273e-01
8.321239858622295287e+03	-6.409048593835017238e-01	-3.682108416108106130e+00	-6.409001874567245016e-01
8.321243325788242146e+03	-6.409549355753677569e-01	-3.680593428313902127e+00	-6.409496533276618502e-01
8.321246792954189004e+03	-6.410111138710335998e-01	-3.678898344478465976e+00	-6.410052215069479420e-01
8.321250260120135863e+03	-6.410733920948108455e-01	-3.677023206763337715e+00	-6.410668898425658790e-01
8.321253727286082722e+03	-6.411417678343351856e-01	-3.674968061758304039e+00	-6.411346559458155347e-01
8.321257194452029580e+03	-6.412162384406521198e-01	-3.672732960484544229e+00	-6.412085171913969317e-01
8.321260661617976439e+03	-6.412968010283106590e-01	-3.670317958398007008e+00	-6.412884707175047216e-01
8.321264128783923297e+03	-6.413834524754682409e-01	-3.667723115393084488e+00	-6.413745134259303260e-01
8.321267595949870156e+03	-6.414761894240001983e-01	-3.664948495806632067e+00	-6.414666419821718479e-01
8.321271063115817014e+03	-6.415750082796199960e-01	-3.661994168422260110e+00	-6.415648528155538655e-01
8.321274530281763873e+03	-6.416799052120072400e-01	-3.658860206474955579e+00	-6.416691421193529976e-01
8.321277997447708913e+03	-6.417908761549451224e-01	-3.655546687655952365e+00	-6.417795058509356831e-01
8.321281464613655771e+03	-6.419079168064643071e-01	-3.652053694117948446e+00	-6.418959397319011773e-01
8.321284931779602630e+03	-6.420310226289971389e-01	-3.648381312480601935e+00	-6.420184392482344293e-01
8.321288398945549488e+03	-6.421601888495400701e-01	-3.644529633836269156e+00	-6.421469996504678424e-01
8.321291866111496347e+03	-6.422954104598239677e-01	-3.640498753756113981e+00	-6.422816159538511371e-01
8.321295333277443206e+03	-6.424366822164923052e-01	-3.636288772296453864e+00	-6.424222829385284328e-01
8.321298800443390064e+03	-6.425839986412898996e-01	-3.631899794005402526e+00	-6.425689951497249863e-01
8.321302267609336923e+03	-6.427373540212583114e-01	-3.627331927929775546e+00	-6.427217468979443682e-01
8.321305734775283781e+03	-6.428967424089400140e-01	-3.622585287622313910e+00	-6.428805322591691906e-01
8.321309201941230640e+03	-6.430621576225908909e-01	-3.617659991149166476e+00	-6.430453450750742705e-01
8.321312669107177499e+03	-6.432335932464022799e-01	-3.612556161097655760e+00	-6.432161789532472307e-01
8.321316136273124357e+03	-6.434110426307304564e-01	-3.607273924584253777e+00	-6.433930272674170947e-01
8.321319603439069397e+03	-6.435944988923337773e-01	-3.601813413262957564e+00	-6.435758831576912087e-01
8.321323070605016255e+03	-6.437839549146208151e-01	-3.596174763333775726e+00	-6.437647395308018217e-01
8.321326537770963114e+03	-6.439794033479048219e-01	-3.590358115551592899e+00	-6.439595890603596606e-01
8.321330004936909972e+03	-6.441808366096668514e-01	-3.584363615235226952e+00	-6.441604241871173864e-01
8.321333472102856831e+03	-6.443882468848279865e-01	-3.578191412276771288e+00	-6.443672371192395998e-01
8.321336939268803690e+03	-6.446016261260292257e-01	-3.571841661151241354e+00	-6.445800198325819519e-01
8.321340406434750548e+03	-6.448209660539198085e-01	-3.565314520926328168e+00	-6.447987640709800239e-01
8.321343873600697407e+03	-6.450462581574564203e-01	-3.558610155272511566e+00	-6.450234613465457567e-01
8.321347340766644265e+03	-6.452774936942059503e-01	-3.551728732473395045e+00	-6.452541029399717631e-01
8.321350807932591124e+03	-6.455146636906616830e-01	-3.544670425436265759e+00	-6.454906799008437446e-01
8.321354275098537983e+03	-6.457577589425649300e-01	-3.537435411702863242e+00	-6.457331830479633439e-01
8.321357742264484841e+03	-6.460067700152347658e-01	-3.530023873460421235e+00	-6.459816029696773265e-01
8.321361209430429881e+03	-6.462616872439076454e-01	-3.522435997552940901e+00	-6.462359300242143112e-01
8.321364676596376739e+03	-6.465225007340862362e-01	-3.514671975492602130e+00	-6.464961543400349342e-01
8.321368143762323598e+03	-6.467892003618939123e-01	-3.506732003471472847e+00	-6.467622658161840121e-01
8.321371610928270456e+03	-6.470617757744389076e-01	-3.498616282373426145e+00	-6.470342541226545841e-01
8.321375078094217315e+03	-6.473402163901879058e-01	-3.490325017786209294e+00	-6.473121087007607244e-01
8.321378545260164174e+03	-6.476245113993470692e-01	-3.481858420013751232e+00	-6.475958187635170171e-01
8.321382012426111032e+03	-6.479146497642510605e-01	-3.473216704088645024e+00	-6.478853732960276890e-01
8.321385479592057891e+03	-6.482106202197603917e-01	-3.464400089784915426e+00	-6.481807610558822930e-01
8.321388946758004749e+03	-6.485124112736683211e-01	-3.455408801630810434e+00	-6.484819705735626050e-01
8.321392413923951608e+03	-6.488200112071140779e-01	-3.446243068921952091e+00	-6.487889901528542946e-01
8.321395881089898467e+03	-6.491334080750061908e-01	-3.436903125734550368e+00	-6.491018078712695871e-01
8.321399348255845325e+03	-6.494525897064539199e-01	-3.427389210938789343e+00	-6.494204115804779187e-01
8.321402815421790365e+03	-6.497775437052057956e-01	-3.417701568212464291e+00	-6.497447889067444748e-01
8.321406282587737223e+03	-6.501082574500985922e-01	-3.407840446054694272e+00	-6.500749272513760557e-01
8.321409749753684082e+03	-6.504447180955120755e-01	-3.397806097799846992e+00	-6.504108137911779330e-01
8.321413216919630941e+03	-6.507869125718340753e-01	-3.387598781631599998e+00	-6.507524354789154808e-01
8.321416684085577799e+03	-6.511348275859327739e-01	-3.377218760597111569e+00	-6.510997790437879074e-01
8.321420151251524658e+03	-6.514884496216379883e-01	-3.366666302621405649e+00	-6.514528309919067617e-01
8.321423618417471516e+03	-6.518477649402293350e-01	-3.355941680521861148e+00	-6.518115776067843203e-01
8.321427085583418375e+03	-6.522127595809338318e-01	-3.345045172022811819e+00	-6.521760049498304124e-01
8.321430552749365233e+03	-6.525834193614319378e-01	-3.333977059770273144e+00	-6.525460988608570156e-01
8.321434019915312092e+03	-6.529597298783722525e-01	-3.322737631346794451e+00	-6.529218449585926232e-01
8.321437487081258951e+03	-6.533416765078922106e-01	-3.311327179286439382e+00	-6.533032286412020495e-01
8.321440954247205809e+03	-6.537292444061479912e-01	-3.299746001089898684e+00	-6.536902350868155631e-01
8.321444421413150849e+03	-6.541224185098549748e-01	-3.287994399239602128e+00	-6.540828492540678996e-01
8.321447888579097707e+03	-6.545211835368330844e-01	-3.276072681215003612e+00	-6.544810558826442692e-01
8.321451355745044566e+03	-6.549255239865628964e-01	-3.263981159507986174e+00	-6.548848394938333595e-01
8.321454822910991425e+03	-6.553354241407479686e-01	-3.251720151638234579e+00	-6.552941843910909947e-01
8.321458290076938283e+03	-6.557508680638856058e-01	-3.239289980168821970e+00	-6.557090746606095699e-01
8.321461757242885142e+03	-6.561718396038476175e-01	-3.226690972721773409e+00	-6.561294941718965879e-01
8.321465224408832000e+03	-6.565983223924670709e-01	-3.213923461993701380e+00	-6.565554265783625221e-01
8.321468691574778859e+03	-6.570302998461343691e-01	-3.200987785771549188e+00	-6.569868553179151194e-01
8.321472158740725718e+03	-6.574677551664016573e-01	-3.187884286948327706e+00	-6.574237636135630281e-01
8.321475625906672576e+03	-6.579106713405943330e-01	-3.174613313538932946e+00	-6.578661344740259764e-01
8.321479093072619435e+03	-6.583590311424306618e-01	-3.161175218696002265e+00	-6.583139506943557206e-01
8.321482560238566293e+03	-6.588128171326510518e-01	-3.147570360725814087e+00	-6.587671948565609892e-01
8.321486027404511333e+03	-6.592720116596535451e-01	-3.133799103104131678e+00	-6.592258493302457500e-01
8.321489494570458191e+03	-6.597365968601393016e-01	-3.119861814492161933e+00	-6.596898962732519189e-01
8.321492961736405050e+03	-6.602065546597634116e-01	-3.105758868752539925e+00	-6.601593176323087286e-01
8.321496428902351909e+03	-6.606818667737963668e-01	-3.091490644965198431e+00	-6.606340951436957543e-01
8.321499896068298767e+03	-6.611625147077926368e-01	-3.077057527443346707e+00	-6.611142103339087139e-01
8.321503363234245626e+03	-6.616484797582673494e-01	-3.062459905749403966e+00	-6.615996445203360388e-01
8.321506830400192484e+03	-6.621397430133804107e-01	-3.047698174710912422e+00	-6.620903788119418820e-01
8.321510297566139343e+03	-6.626362853536287290e-01	-3.032772734436455231e+00	-6.625863941099582322e-01
8.321513764732086202e+03	-6.631380874525467650e-01	-3.017683990331534449e+00	-6.630876711085841313e-01
8.321517231898033060e+03	-6.636451297774165203e-01	-3.002432353114381058e+00	-6.635941902956944416e-01
8.321520699063979919e+03	-6.641573925899815212e-01	-2.987018238831779193e+00	-6.641059319535543848e-01
8.321524166229926777e+03	-6.646748559471731266e-01	-2.971442068874815767e+00	-6.646228761595434076e-01
8.321527633395871817e+03	-6.651974997018412772e-01	-2.955704269994583466e+00	-6.651450027868867076e-01
8.321531100561818675e+03	-6.657253035034951250e-01	-2.939805274317814909e+00	-6.656722915053939760e-01
8.321534567727765534e+03	-6.662582467990521007e-01	-2.923745519362437317e+00	-6.662047217822074652e-01
8.321538034893712393e+03	-6.667963088335929767e-01	-2.907525448053044581e+00	-6.667422728825579403e-01
8.321541502059659251e+03	-6.673394686511243679e-01	-2.891145508736400416e+00	-6.672849238705247377e-01
8.321544969225606110e+03	-6.678877050953516692e-01	-2.874606155196682167e+00	-6.678326536098082578e-01
8.321548436391552968e+03	-6.684409968104576549e-01	-2.857907846670749041e+00	-6.683854407645083429e-01
8.321551903557499827e+03	-6.689993222418902930e-01	-2.841051047863240253e+00	-6.689432637999106479e-01
8.321555370723446686e+03	-6.695626596371574424e-01	-2.824036228961612327e+00	-6.695061009832812271e-01
8.321558837889393544e+03	-6.701309870466296559e-01	-2.806863865651007650e+00	-6.700739303846678929e-01
8.321562305055340403e+03	-6.707042823243495322e-01	-2.789534439129098153e+00	-6.706467298777095687e-01
8.321565772221287261e+03	-6.712825231288505057e-01	-2.772048436120675863e+00	-6.712244771404535237e-01
8.321569239387232301e+03	-6.718656869239842955e-01	-2.754406348892178169e+00	-6.718071496561818234e-01
8.321572706553179160e+03	-6.724537509797517965e-01	-2.736608675266042567e+00	-6.723947247142433303e-01
8.321576173719126018e+03	-6.730466923731456275e-01	-2.718655918634954372e+00	-6.729871794108932548e-01
8.321579640885072877e+03	-6.736444879889975645e-01	-2.700548587975949211e+00	-6.735844906501408103e-01
8.321583108051019735e+03	-6.742471145208367433e-01	-2.682287197864204220e+00	-6.741866351446067496e-01
8.321586575216966594e+03	-6.748545484717515253e-01	-2.663872268486859429e+00	-6.747935894163844539e-01
8.321590042382913452e+03	-6.754667661552631319e-01	-2.645304325656517186e+00	-6.754053297979123460e-01
8.321593509548860311e+03	-6.760837436962040536e-01	-2.626583900824591478e+00	-6.760218324328522987e-01
8.321596976714807170e+03	-6.767054570316041184e-01	-2.607711531094536461e+00	-6.766430732769741496e-01
8.321600443880754028e+03	-6.773318819115851097e-01	-2.588687759234785446e+00	-6.772690280990498746e-01
8.321603911046700887e+03	-6.779629939002622674e-01	-2.569513133691519347e+00	-6.778996724817546449e-01
8.321607378212647745e+03	-6.785987683766524503e-01	-2.550188208601260609e+00	-6.785349818225742125e-01
8.321610845378592785e+03	-6.792391805355918466e-01	-2.530713543803188248e+00	-6.791749313347211769e-01
8.321614312544539644e+03	-6.798842053886601233e-01	-2.511089704851237947e+00	-6.798194960480592464e-01
8.321617779710486502e+03	-6.805338177651104603e-01	-2.491317263026027629e+00	-6.804686508100317166e-01
8.321621246876433361e+03	-6.811879923128084657e-01	-2.471396795346473052e+00	-6.811223702866010532e-01
8.321624714042380219e+03	-6.818467034991795295e-01	-2.451328884581197354e+00	-6.817806289631934691e-01
8.321628181208327078e+03	-6.825099256121602842e-01	-2.431114119259681683e+00	-6.824434011456519400e-01
8.321631648374273936e+03	-6.831776327611601696e-01	-2.410753093683190684e+00	-6.831106609611945490e-01
8.321635115540220795e+03	-6.838497988780295467e-01	-2.390246407935343154e+00	-6.837823823593838224e-01
8.321638582706167654e+03	-6.845263977180339188e-01	-2.369594667892502837e+00	-6.844585391131002838e-01
8.321642049872114512e+03	-6.852074028608365897e-01	-2.348798485233891675e+00	-6.851391048195223377e-01
8.321645517038061371e+03	-6.858927877114879834e-01	-2.327858477451314467e+00	-6.858240529011176978e-01
8.321648984204008229e+03	-6.865825255014227357e-01	-2.306775267858750755e+00	-6.865133566066368154e-01
8.321652451369953269e+03	-6.872765892894627804e-01	-2.285549485601491515e+00	-6.872069890121178526e-01
8.321655918535900128e+03	-6.879749519628284293e-01	-2.264181765665095547e+00	-6.879049230218958755e-01
8.321659385701846986e+03	-6.886775862381567803e-01	-2.242672748883982603e+00	-6.886071313696197072e-01
8.321662852867793845e+03	-6.893844646625255645e-01	-2.221023081949690337e+00	-6.893135866192771077e-01
8.321666320033740703e+03	-6.900955596144860982e-01	-2.199233417418890557e+00	-6.900242611662250614e-01
8.321669787199687562e+03	-6.908108433051004527e-01	-2.177304413721003584e+00	-6.907391272382280567e-01
8.321673254365634421e+03	-6.915302877789891722e-01	-2.155236735165500406e+00	-6.914581568965034730e-01
8.321676721531581279e+03	-6.922538649153828771e-01	-2.133031051948888646e+00	-6.921813220367729613e-01
8.321680188697528138e+03	-6.929815464291824156e-01	-2.110688040161303292e+00	-6.929085943903228184e-01
8.321683655863474996e+03	-6.937133038720258993e-01	-2.088208381792771906e+00	-6.936399455250691348e-01
8.321687123029421855e+03	-6.944491086333608454e-01	-2.065592764739171638e+00	-6.943753468466297152e-01
8.321690590195368713e+03	-6.951889319415244239e-01	-2.042841882807739928e+00	-6.951147695994046583e-01
8.321694057361313753e+03	-6.959327448648305880e-01	-2.019956435722317867e+00	-6.958581848676603787e-01
8.321697524527260612e+03	-6.966805183126636436e-01	-1.996937129128074417e+00	-6.966055635766252863e-01
8.321700991693207470e+03	-6.974322230365784803e-01	-1.973784674595994604e+00	-6.973568764935873521e-01
8.321704458859154329e+03	-6.981878296314077970e-01	-1.950499789626905178e+00	-6.981120942290014453e-01
8.321707926025101187e+03	-6.989473085363743232e-01	-1.927083197655142799e+00	-6.988711872376007772e-01
8.321711393191048046e+03	-6.997106300362123665e-01	-1.903535628051783224e+00	-6.996341258195184487e-01
8.321714860356994905e+03	-7.004777642622941336e-01	-1.879857816127531667e+00	-7.004008801214114399e-01
8.321718327522941763e+03	-7.012486811937618247e-01	-1.856050503135141749e+00	-7.011714201375943700e-01
8.321721794688888622e+03	-7.020233506586684991e-01	-1.832114436271497171e+00	-7.019457157111770318e-01
8.321725261854835480e+03	-7.028017423351232695e-01	-1.808050368679190667e+00	-7.027237365352116960e-01
8.321728729020782339e+03	-7.035838257524450468e-01	-1.783859059447714612e+00	-7.035054521538439687e-01
8.321732196186729198e+03	-7.043695702923186142e-01	-1.759541273614304790e+00	-7.042908319634700876e-01
8.321735663352674237e+03	-7.051589451899628047e-01	-1.735097782164217506e+00	-7.050798452139024342e-01
8.321739130518621096e+03	-7.059519195353001209e-01	-1.710529362030636547e+00	-7.058724610095405971e-01
8.321742597684567954e+03	-7.067484622741354583e-01	-1.685836796094148493e+00	-7.066686483105478755e-01
8.321746064850514813e+03	-7.075485422093396037e-01	-1.661020873181744850e+00	-7.074683759340349987e-01
8.321749532016461671e+03	-7.083521280020385058e-01	-1.636082388065405402e+00	-7.082716125552487307e-01
8.321752999182408530e+03	-7.091591881728109836e-01	-1.611022141460164203e+00	-7.090783267087686914e-01
8.321756466348355389e+03	-7.099696911028896551e-01	-1.585840940021806089e+00	-7.098884867897078399e-01
8.321759933514302247e+03	-7.107836050353698587e-01	-1.560539596344035829e+00	-7.107020610549201756e-01
8.321763400680249106e+03	-7.116008980764241265e-01	-1.535118928955123918e+00	-7.115190176242166542e-01
8.321766867846195964e+03	-7.124215381965225413e-01	-1.509579762314239515e+00	-7.123393244815815484e-01
8.321770335012142823e+03	-7.132454932316589780e-01	-1.483922926807138998e+00	-7.131629494764014643e-01
8.321773802178089682e+03	-7.140727308845823407e-01	-1.458149258741461951e+00	-7.139898603246944697e-01
8.321777269344034721e+03	-7.149032187260360161e-01	-1.432259600341549532e+00	-7.148200246103482147e-01
8.321780736509981580e+03	-7.157369241960012118e-01	-1.406254799742691963e+00	-7.156534097863639365e-01
8.321784203675928438e+03	-7.165738146049456248e-01	-1.380135710984961905e+00	-7.164899831761046833e-01
8.321787670841875297e+03	-7.174138571350793248e-01	-1.353903194006551125e+00	-7.173297119745492001e-01
8.321791138007822155e+03	-7.182570188416157464e-01	-1.327558114636513631e+00	-7.181725632495541412e-01
8.321794605173769014e+03	-7.191032666540387863e-01	-1.301101344587096698e+00	-7.190185039431189473e-01
8.321798072339715873e+03	-7.199525673773741197e-01	-1.274533761445540314e+00	-7.198675008726572733e-01
8.321801539505662731e+03	-7.208048876934661786e-01	-1.247856248665330403e+00	-7.207195207322748542e-01
8.321805006671609590e+03	-7.216601941622640126e-01	-1.221069695556948664e+00	-7.215745300940520357e-01
8.321808473837556448e+03	-7.225184532231063717e-01	-1.194174997278177219e+00	-7.224324954093302997e-01
8.321811941003503307e+03	-7.233796311960181136e-01	-1.167173054823753775e+00	-7.232933830100076733e-01
8.321815408169450166e+03	-7.242436942830089430e-01	-1.140064775014580034e+00	-7.241571591098366900e-01
8.321818875335395205e+03	-7.251106085693782566e-01	-1.112851070486372995e+00	-7.250237898057286801e-01
8.321822342501342064e+03	-7.259803400250245398e-01	-1.085532859677798667e+00	-7.258932410790636114e-01
8.321825809667288922e+03	-7.268528545057616475e-01	-1.058111066818070878e+00	-7.267654787970042607e-01
8.321829276833235781e+03	-7.277281177546377489e-01	-1.030586621914013623e+00	-7.276404687138156024e-01
8.321832743999182640e+03	-7.286060954032604897e-01	-1.002960460736571635e+00	-7.285181764721899711e-01
8.321836211165129498e+03	-7.294867529731289268e-01	-9.752335248067689477e-01	-7.293985676045768862e-01
8.321839678331076357e+03	-7.303700558769674611e-01	-9.474067613811606448e-01	-7.302816075345180957e-01
8.321843145497023215e+03	-7.312559694200679861e-01	-9.194811234366589980e-01	-7.311672615779885032e-01
8.321846612662970074e+03	-7.321444588016342570e-01	-8.914575696549005279e-01	-7.320554949447395376e-01
8.321850079828916932e+03	-7.330354891161315889e-01	-8.633370644059805699e-01	-7.329462727396499622e-01
8.321853546994863791e+03	-7.339290253546426612e-01	-8.351205777317214363e-01	-7.338395599640793465e-01
8.321857014160810650e+03	-7.348250324062278738e-01	-8.068090853282516850e-01	-7.347353215172288676e-01
8.321860481326755689e+03	-7.357234750592885897e-01	-7.784035685281467387e-01	-7.356335221975044414e-01
8.321863948492702548e+03	-7.366243180029367066e-01	-7.499050142819793097e-01	-7.365341267038851836e-01
8.321867415658649406e+03	-7.375275258283684465e-01	-7.213144151392494319e-01	-7.374370996372968667e-01
