# time(us)	tip(nm)	Fts(nN)	Xb(nm)
8.321201719796881662e+03	-9.067958590057079160e-01	1.029956056124675223e+00	-9.067973692126003460e-01
8.321205186962828520e+03	-9.067836957782003937e-01	1.029565676422175002e+00	-9.067846716429670550e-01
8.321208654128775379e+03	-9.067768762003398653e-01	1.029362834839393503e+00	-9.067773176845818073e-01
8.321212121294722238e+03	-9.067754005414906393e-01	1.029347537121383160e+00	-9.067753076276493518e-01
8.321215588460669096e+03	-9.067792688626107322e-01	1.029519783357068841e+00	-9.067786415539689227e-01
8.321219055626615955e+03	-9.067884810162494258e-01	1.029879567979340216e+00	-9.067873193369307971e-01
8.321222522792562813e+03	-9.068030366465492653e-01	1.030426879764964054e+00	-9.068013406415172950e-01
8.321225989958509672e+03	-9.068229351892594936e-01	1.031161701834532485e+00	-9.068207049243166562e-01
8.321229457124456530e+03	-9.068481758717599206e-01	1.032084011652381728e+00	-9.068454114335442462e-01
8.321232924290403389e+03	-9.068787577130816846e-01	1.033193781026187974e+00	-9.068754592090644273e-01
8.321236391456348429e+03	-9.069146795239525494e-01	1.034490976106916760e+00	-9.069108470824336354e-01
8.321239858622295287e+03	-9.069559399068352068e-01	1.035975557388281176e+00	-9.069515736769387937e-01
8.321243325788242146e+03	-9.070025372559799015e-01	1.037647479706340414e+00	-9.069976374076487158e-01
8.321246792954189004e+03	-9.070544697574847159e-01	1.039506692239005714e+00	-9.070490364814742801e-01
8.321250260120135863e+03	-9.071117353893609625e-01	1.041553138505365128e+00	-9.071057688972314903e-01
8.321253727286082722e+03	-9.071743319216090118e-01	1.043786756365098434e+00	-9.071678324457191911e-01
8.321257194452029580e+03	-9.072422569163023365e-01	1.046207478017709747e+00	-9.072352247097988931e-01
8.321260661617976439e+03	-9.073155077276729985e-01	1.048815230001623133e+00	-9.073079430644827026e-01
8.321264128783923297e+03	-9.073940815022146777e-01	1.051609933193422775e+00	-9.073859846770335746e-01
8.321267595949870156e+03	-9.074779751787834803e-01	1.054591502806750292e+00	-9.074693465070662324e-01
8.321271063115817014e+03	-9.075671854887140677e-01	1.057759848391365942e+00	-9.075580253066625191e-01
8.321274530281763873e+03	-9.076617089559423368e-01	1.061114873832065930e+00	-9.076520176204923018e-01
8.321277997447708913e+03	-9.077615418971290984e-01	1.064656477347416974e+00	-9.077513197859380378e-01
8.321281464613655771e+03	-9.078666804218022968e-01	1.068384551488605227e+00	-9.078559279332341081e-01
8.321284931779602630e+03	-9.079771204324981193e-01	1.072298983138173734e+00	-9.079658379856098138e-01
8.321288398945549488e+03	-9.080928576249108763e-01	1.076399653508435250e+00	-9.080810456594361479e-01
8.321291866111496347e+03	-9.082138874880550938e-01	1.080686438140253225e+00	-9.082015464643888869e-01
8.321295333277443206e+03	-9.083402053044330460e-01	1.085159206901429751e+00	-9.083273357036127926e-01
8.321298800443390064e+03	-9.084718061502082831e-01	1.089817823985215206e+00	-9.084584084738978049e-01
8.321302267609336923e+03	-9.086086848953902617e-01	1.094662147908703753e+00	-9.085947596658602299e-01
8.321305734775283781e+03	-9.087508362040211951e-01	1.099692031511034562e+00	-9.087363839641304786e-01
8.321309201941230640e+03	-9.088982545343763375e-01	1.104907321951724919e+00	-9.088832758475506868e-01
8.321312669107177499e+03	-9.090509341391710407e-01	1.110307860708990679e+00	-9.090354295893835479e-01
8.321316136273124357e+03	-9.092088690657702532e-01	1.115893483577686141e+00	-9.091928392575183704e-01
8.321319603439069397e+03	-9.093720531564121190e-01	1.121664020667572981e+00	-9.093554987146968971e-01
8.321323070605016255e+03	-9.095404800484335750e-01	1.127619296401196625e+00	-9.095234016187350168e-01
8.321326537770963114e+03	-9.097141431745084938e-01	1.133759129512017294e+00	-9.096965414227623503e-01
8.321330004936909972e+03	-9.098930357628932653e-01	1.140083333042312574e+00	-9.098749113754655005e-01
8.321333472102856831e+03	-9.100771508376749308e-01	1.146591714341112400e+00	-9.100585045213366309e-01
8.321336939268803690e+03	-9.102664812190328636e-01	1.153284075062061431e+00	-9.102473137009349236e-01
8.321340406434750548e+03	-9.104610195235064429e-01	1.160160211161245458e+00	-9.104413315511509230e-01
8.321343873600697407e+03	-9.106607581642636173e-01	1.167219912894859490e+00	-9.106405505054774308e-01
8.321347340766644265e+03	-9.108656893513893404e-01	1.174462964817088340e+00	-9.108449627942947213e-01
8.321350807932591124e+03	-9.110758050921696771e-01	1.181889145777633932e+00	-9.110545604451549817e-01
8.321354275098537983e+03	-9.112910971913925628e-01	1.189498228919561029e+00	-9.112693352830830706e-01
8.321357742264484841e+03	-9.115115572516523379e-01	1.197289981676879611e+00	-9.114892789308786103e-01
8.321361209430429881e+03	-9.117371766736612759e-01	1.205264165772119700e+00	-9.117143828094275149e-01
8.321364676596376739e+03	-9.119679466565685511e-01	1.213420537213928396e+00	-9.119446381380212907e-01
8.321368143762323598e+03	-9.122038581982870875e-01	1.221758846294559442e+00	-9.121800359346807774e-01
8.321371610928270456e+03	-9.124449020958326217e-01	1.230278837587538199e+00	-9.124205670164965420e-01
8.321375078094217315e+03	-9.126910689456605441e-01	1.238980249945038636e+00	-9.126662219999642778e-01
8.321378545260164174e+03	-9.129423491440196159e-01	1.247862816495447058e+00	-9.129169913013378546e-01
8.321382012426111032e+03	-9.131987328873094611e-01	1.256926264640815250e+00	-9.131728651369845906e-01
8.321385479592057891e+03	-9.134602101724430545e-01	1.266170316054337386e+00	-9.134338335237505158e-01
8.321388946758004749e+03	-9.137267707972200892e-01	1.275594686677725909e+00	-9.136998862793290765e-01
8.321392413923951608e+03	-9.139984043607095598e-01	1.285199086718771699e+00	-9.139710130226450513e-01
8.321395881089898467e+03	-9.142751002636376745e-01	1.294983220648817657e+00	-9.142472031742411298e-01
8.321399348255845325e+03	-9.145568477087774317e-01	1.304946787200047087e+00	-9.145284459566686008e-01
8.321402815421790365e+03	-9.148436357013558506e-01	1.315089479362956393e+00	-9.148147303948896969e-01
8.321406282587737223e+03	-9.151354530494620887e-01	1.325410984383872837e+00	-9.151060453166889319e-01
8.321409749753684082e+03	-9.154322883644653297e-01	1.335910983762329751e+00	-9.154023793530884356e-01
8.321413216919630941e+03	-9.157341300614407764e-01	1.346589153248622051e+00	-9.157037209387738352e-01
8.321416684085577799e+03	-9.160409663595987517e-01	1.357445162841122599e+00	-9.160100583125222462e-01
8.321420151251524658e+03	-9.163527852827263454e-01	1.368478676783852377e+00	-9.163213795176426979e-01
8.321423618417471516e+03	-9.166695746596336125e-01	1.379689353563963161e+00	-9.166376724024231093e-01
8.321427085583418375e+03	-9.169913221246090984e-01	1.391076845909240634e+00	-9.169589246205830380e-01
8.321430552749365233e+03	-9.173180151178814690e-01	1.402640800785747821e+00	-9.172851236317367540e-01
8.321434019915312092e+03	-9.176496408860901344e-01	1.414380859395297785e+00	-9.176162567018603111e-01
8.321437487081258951e+03	-9.179861864827568718e-01	1.426296657173090399e+00	-9.179523109037666107e-01
8.321440954247205809e+03	-9.183276387687746567e-01	1.438387823785292952e+00	-9.182932731175890151e-01
8.321444421413150849e+03	-9.186739844128969379e-01	1.450653983126810598e+00	-9.186391300312726216e-01
8.321447888579097707e+03	-9.190252098922370161e-01	1.463094753318958885e+00	-9.189898681410720860e-01
8.321451355745044566e+03	-9.193813014927718630e-01	1.475709746707179582e+00	-9.193454737520554421e-01
8.321454822910991425e+03	-9.197422453098554884e-01	1.488498569858812237e+00	-9.197059329786151372e-01
8.321458290076938283e+03	-9.201080272487401901e-01	1.501460823560999858e+00	-9.200712317449903921e-01
8.321461757242885142e+03	-9.204786330251032433e-01	1.514596102818565937e+00	-9.204413557857917816e-01
8.321465224408832000e+03	-9.208540481655832499e-01	1.527903996852016721e+00	-9.208162906465382491e-01
8.321468691574778859e+03	-9.212342580083219268e-01	1.541384089095524823e+00	-9.211960216841956761e-01
8.321472158740725718e+03	-9.216192477035113351e-01	1.555035957194971230e+00	-9.215805340677262203e-01
8.321475625906672576e+03	-9.220090022139518782e-01	1.568859173006155627e+00	-9.219698127786445374e-01
8.321479093072619435e+03	-9.224035063156186265e-01	1.582853302593050238e+00	-9.223638426115825517e-01
8.321482560238566293e+03	-9.228027445982261989e-01	1.597017906225978390e+00	-9.227626081748556697e-01
8.321486027404511333e+03	-9.232067014658099646e-01	1.611352538379959620e+00	-9.231660938910397629e-01
8.321489494570458191e+03	-9.236153611373124628e-01	1.625856747733319008e+00	-9.235742839975609186e-01
8.321492961736405050e+03	-9.240287076471722649e-01	1.640530077166066691e+00	-9.239871625472814154e-01
8.321496428902351909e+03	-9.244467248459253828e-01	1.655372063758555612e+00	-9.244047134090999096e-01
8.321499896068298767e+03	-9.248693964008107837e-01	1.670382238790195206e+00	-9.248269202685575063e-01
8.321503363234245626e+03	-9.252967057963854547e-01	1.685560127738302105e+00	-9.252537666284519347e-01
8.321506830400192484e+03	-9.257286363351435732e-01	1.700905250276943503e+00	-9.256852358094552757e-01
8.321510297566139343e+03	-9.261651711381408969e-01	1.716417120275880226e+00	-9.261213109507389074e-01
8.321513764732086202e+03	-9.266062931456358065e-01	1.732095245799818439e+00	-9.265619750106122154e-01
8.321517231898033060e+03	-9.270519851177241311e-01	1.747939129107449086e+00	-9.270072107671576411e-01
8.321520699063979919e+03	-9.275022296349948459e-01	1.763948266651032659e+00	-9.274570008188862680e-01
8.321524166229926777e+03	-9.279570090991789977e-01	1.780122149075609173e+00	-9.279113275853850817e-01
8.321527633395871817e+03	-9.284163057338126190e-01	1.796460261218558063e+00	-9.283701733079795515e-01
8.321531100561818675e+03	-9.288801015849105225e-01	1.812962082109460304e+00	-9.288335200504057587e-01
8.321534567727765534e+03	-9.293483785216383186e-01	1.829627084969798201e+00	-9.293013496994841915e-01
8.321538034893712393e+03	-9.298211182369957584e-01	1.846454737212898545e+00	-9.297736439658002006e-01
8.321541502059659251e+03	-9.302983022485096232e-01	1.863444500444058072e+00	-9.302503843843962228e-01
8.321544969225606110e+03	-9.307799118989305009e-01	1.880595830460873641e+00	-9.307315523154692238e-01
8.321548436391552968e+03	-9.312659283569297841e-01	1.897908177253334161e+00	-9.312171289450668077e-01
8.321551903557499827e+03	-9.317563326178178729e-01	1.915380985004553782e+00	-9.317070952858034216e-01
8.321555370723446686e+03	-9.322511055042566053e-01	1.933013692091313906e+00	-9.322014321775726753e-01
8.321558837889393544e+03	-9.327502276669843440e-01	1.950805731084945815e+00	-9.327001202882728714e-01
8.321562305055340403e+03	-9.332536795855468359e-01	1.968756528752261481e+00	-9.332031401145362004e-01
8.321565772221287261e+03	-9.337614415690353997e-01	1.986865506056742170e+00	-9.337104719824658172e-01
8.321569239387232301e+03	-9.342734937568288878e-01	2.005132078159737929e+00	-9.342220960483778036e-01
8.321572706553179160e+03	-9.347898161193460842e-01	2.023555654422066308e+00	-9.347379922995537882e-01
8.321576173719126018e+03	-9.353103884588018779e-01	2.042135638405500941e+00	-9.352581405549940108e-01
8.321579640885072877e+03	-9.358351904099712071e-01	2.060871427874676254e+00	-9.357825204661833762e-01
8.321583108051019735e+03	-9.363642014409603309e-01	2.079762414799083192e+00	-9.363111115178599508e-01
8.321586575216966594e+03	-9.368974008539840970e-01	2.098807985355223504e+00	-9.368438930287921185e-01
8.321590042382913452e+03	-9.374347677861487593e-01	2.118007519929006488e+00	-9.373808441525619539e-01
8.321593509548860311e+03	-9.379762812102414582e-01	2.137360393118242996e+00	-9.379219438783532592e-01
8.321596976714807170e+03	-9.385219199355283592e-01	2.156865973735456521e+00	-9.384671710317479265e-01
8.321600443880754028e+03	-9.390716626085565677e-01	2.176523624810750235e+00	-9.390165042755280744e-01
8.321603911046700887e+03	-9.396254877139637030e-01	2.196332703595039959e+00	-9.395699221104861776e-01
8.321607378212647745e+03	-9.401833735752949117e-01	2.216292561563420360e+00	-9.401274028762396373e-01
8.321610845378592785e+03	-9.407452983558243220e-01	2.236402544418641281e+00	-9.406889247520524577e-01
8.321614312544539644e+03	-9.413112400593862672e-01	2.256661992095061464e+00	-9.412544657576653595e-01
8.321617779710486502e+03	-9.418811765312058437e-01	2.277070238762451293e+00	-9.418240037541268928e-01
8.321621246876433361e+03	-9.424550854587454563e-01	2.297626612830360848e+00	-9.423975164446378727e-01
8.321624714042380219e+03	-9.430329443725474770e-01	2.318330436952433349e+00	-9.429749813753937060e-01
8.321628181208327078e+03	-9.436147306470920038e-01	2.339181028031177334e+00	-9.435563759364421488e-01
8.321631648374273936e+03	-9.442004215016555069e-01	2.360177697222874738e+00	-9.441416773625420644e-01
8.321635115540220795e+03	-9.447899940011775799e-01	2.381319749942608865e+00	-9.447308627340265108e-01
8.321638582706167654e+03	-9.453834250571343523e-01	2.402606485869810182e+00	-9.453239089776790394e-01
8.321642049872114512e+03	-9.459806914284147883e-01	2.424037198953690186e+00	-9.459207928676074406e-01
8.321645517038061371e+03	-9.465817697222081994e-01	2.445611177419239279e+00	-9.465214910261311454e-01
8.321648984204008229e+03	-9.471866363948944212e-01	2.467327703773303682e+00	-9.471259799246704025e-01
8.321652451369953269e+03	-9.477952677529405401e-01	2.489186054810940796e+00	-9.477342358846431170e-01
8.321655918535900128e+03	-9.484076399538053925e-01	2.511185501622114291e+00	-9.483462350783685713e-01
8.321659385701846986e+03	-9.490237290068480602e-01	2.533325309598509101e+00	-9.489619535299747000e-01
8.321662852867793845e+03	-9.496435107742441373e-01	2.555604738440731882e+00	-9.495813671163131353e-01
8.321666320033740703e+03	-9.502669609718997767e-01	2.578023042165548784e+00	-9.502044515678764736e-01
8.321669787199687562e+03	-9.508940551703868316e-01	2.600579469113753817e+00	-9.508311824697276426e-01
8.321673254365634421e+03	-9.515247687958732214e-01	2.623273261958080305e+00	-9.514615352624323785e-01
8.321676721531581279e+03	-9.521590771310617374e-01	2.646103657711464052e+00	-9.520954852429982518e-01
8.321680188697528138e+03	-9.527969553161341754e-01	2.669069887735513458e+00	-9.527330075658165809e-01
8.321683655863474996e+03	-9.534383783497035747e-01	2.692171177749347777e+00	-9.533740772436136712e-01
8.321687123029421855e+03	-9.540833210897657901e-01	2.715406747838604584e+00	-9.540186691484043857e-01
8.321690590195368713e+03	-9.547317582546686054e-01	2.738775812464952164e+00	-9.546667580124577057e-01
8.321694057361313753e+03	-9.553836644240715215e-01	2.762277580475613448e+00	-9.553183184292584063e-01
8.321697524527260612e+03	-9.560390140399226411e-01	2.785911255113330931e+00	-9.559733248544813877e-01
8.321700991693207470e+03	-9.566977814074387743e-01	2.809676034026760583e+00	-9.566317516069726690e-01
8.321704458859154329e+03	-9.573599406960888736e-01	2.833571109280979439e+00	-9.572935728697318236e-01
8.321707926025101187e+03	-9.580254659405827988e-01	2.857595667368267645e+00	-9.579587626908995235e-01
8.321711393191048046e+03	-9.586943310418692965e-01	2.881748889219419407e+00	-9.586272949847555180e-01
8.321714860356994905e+03	-9.593665097681359777e-01	2.906029950215188062e+00	-9.592991435327187233e-01
8.321718327522941763e+03	-9.600419757558140699e-01	2.930438020198014470e+00	-9.599742819843504193e-01
8.321721794688888622e+03	-9.607207025105954923e-01	2.954972263484312300e+00	-9.606526838583704375e-01
8.321725261854835480e+03	-9.614026634084449352e-01	2.979631838876778183e+00	-9.613343225436707939e-01
8.321728729020782339e+03	-9.620878316966241517e-01	3.004415899677165047e+00	-9.620191713003372058e-01
8.321732196186729198e+03	-9.627761804947224666e-01	3.029323593699424055e+00	-9.627072032606796004e-01
8.321735663352674237e+03	-9.634676827956870637e-01	3.054354063283114318e+00	-9.633983914302624019e-01
8.321739130518621096e+03	-9.641623114668621541e-01	3.079506445307128804e+00	-9.640927086889443665e-01
8.321742597684567954e+03	-9.648600392510341406e-01	3.104779871203738217e+00	-9.647901277919194163e-01
8.321746064850514813e+03	-9.655608387674824433e-01	3.130173466973232177e+00	-9.654906213707707963e-01
8.321749532016461671e+03	-9.662646825130308814e-01	3.155686353198451588e+00	-9.661941619345203458e-01
8.321752999182408530e+03	-9.669715428631067144e-01	3.181317645059971611e+00	-9.669007218706866524e-01
8.321756466348355389e+03	-9.676813920728057905e-01	3.207066452351536423e+00	-9.676102734463515320e-01
8.321759933514302247e+03	-9.683942022779612468e-01	3.232931879495823502e+00	-9.683227888092259539e-01
8.321763400680249106e+03	-9.691099454962196491e-01	3.258913025560635113e+00	-9.690382399887259579e-01
8.321766867846195964e+03	-9.698285936281207942e-01	3.285008984275450850e+00	-9.697565988970534567e-01
8.321770335012142823e+03	-9.705501184581810659e-01	3.311218844048267052e+00	-9.704778373302789252e-01
8.321773802178089682e+03	-9.712744916559818975e-01	3.337541687982686245e+00	-9.712019269694276424e-01
8.321777269344034721e+03	-9.720016847772628976e-01	3.363976593895519951e+00	-9.719288393815741500e-01
8.321780736509981580e+03	-9.727316692650249674e-01	3.390522634334861340e+00	-9.726585460209433709e-01
8.321784203675928438e+03	-9.734644164506290887e-01	3.417178876598207626e+00	-9.733910182300109515e-01
8.321787670841875297e+03	-9.741998975549088780e-01	3.443944382751214395e+00	-9.741262272406129297e-01
8.321791138007822155e+03	-9.749380836892800328e-01	3.470818209646661323e+00	-9.748641441750562908e-01
8.321794605173769014e+03	-9.756789458568607687e-01	3.497799408943931709e+00	-9.756047400472390718e-01
8.321798072339715873e+03	-9.764224549535930331e-01	3.524887027128682515e+00	-9.763479857637697990e-01
8.321801539505662731e+03	-9.771685817693683829e-01	3.552080105533045984e+00	-9.770938521250950304e-01
8.321805006671609590e+03	-9.779172969891589684e-01	3.579377680356021774e+00	-9.778423098266270097e-01
8.321808473837556448e+03	-9.786685711941573995e-01	3.606778782684564977e+00	-9.785933294598853083e-01
8.321811941003503307e+03	-9.794223748629137249e-01	3.634282438514732316e+00	-9.793468815136322503e-01
8.321815408169450166e+03	-9.801786783724812935e-01	3.661887668773449178e+00	-9.801029363750205503e-01
8.321818875335395205e+03	-9.809374519995635033e-01	3.689593489340293520e+00	-9.808614643307358438e-01
8.321822342501342064e+03	-9.816986659216702105e-01	3.717398911070162182e+00	-9.816224355681555380e-01
8.321825809667288922e+03	-9.824622902182750250e-01	3.745302939815978505e+00	-9.823858201765041098e-01
8.321829276833235781e+03	-9.832282948719774929e-01	3.773304576451983916e+00	-9.831515881480169528e-01
8.321832743999182640e+03	-9.839966497696643888e-01	3.801402816897064607e+00	-9.839197093790990056e-01
8.321836211165129498e+03	-9.847673247036847766e-01	3.829596652138906876e+00	-9.846901536715005898e-01
8.321839678331076357e+03	-9.855402893730245140e-01	3.857885068258383399e+00	-9.854628907334902488e-01
8.321843145497023215e+03	-9.863155133844823119e-01	3.886267046454256135e+00	-9.862378901810332499e-01
8.321846612662970074e+03	-9.870929662538530103e-01	3.914741563068284247e+00	-9.870151215389713073e-01
8.321850079828916932e+03	-9.878726174071139621e-01	3.943307589610758335e+00	-9.877945542422089664e-01
8.321853546994863791e+03	-9.886544361816154147e-01	3.971964092786593792e+00	-9.885761576369070935e-01
8.321857014160810650e+03	-9.894383918272728895e-01	4.000710034521411274e+00	-9.893599009816700374e-01
8.321860481326755689e+03	-9.902244535077678877e-01	4.029544371988468932e+00	-9.901457534487482226e-01
8.321863948492702548e+03	-9.910125903017497073e-01	4.058466057635801150e+00	-9.909336841252407435e-01
8.321867415658649406e+03	-9.918027712040399235e-01	4.087474039213685906e+00	-9.917236620142971804e-01
8.321870882824596265e+03	-9.925949651268399787e-01	4.116567259802566880e+00	-9.925156560363268543e-01
8.321874349990543124e+03	-9.933891409009445450e-01	4.145744657841334835e+00	-9.933096350302099697e-01
