# time(us)	tip(nm)	Fts(nN)	Xb(nm)
8.321201719796881662e+03	-4.499268384513065655e+00	1.177122420782318670e+02	-4.499268601994545591e+00
8.321205186962828520e+03	-4.499267617872468428e+00	1.177121973113888771e+02	-4.499267579321581501e+00
8.321208654128775379e+03	-4.499269411561536813e+00	1.177123526951063184e+02	-4.499269116978708460e+00
8.321212121294722238e+03	-4.499273765520531043e+00	1.177127082233015756e+02	-4.499273214916270192e+00
8.321215588460669096e+03	-4.499280679588891552e+00	1.177132638821818063e+02	-4.499279872983795059e+00
8.321219055626615955e+03	-4.499290153505227430e+00	1.177140196502418519e+02	-4.499289090929967649e+00
8.321222522792562813e+03	-4.499302186907357282e+00	1.177149754982690268e+02	-4.499300868402691833e+00
8.321225989958509672e+03	-4.499316779332215077e+00	1.177161313893349615e+02	-4.499315204948984181e+00
8.321229457124456530e+03	-4.499333930216049993e+00	1.177174872788097133e+02	-4.499332100015158709e+00
8.321232924290403389e+03	-4.499353638894377561e+00	1.177190431143611846e+02	-4.499351552946816213e+00
8.321236391456348429e+03	-4.499375904601941478e+00	1.177207988359480595e+02	-4.499373562988759900e+00
8.321239858622295287e+03	-4.499400726472795320e+00	1.177227543758295241e+02	-4.499398129285123282e+00
8.321243325788242146e+03	-4.499428103540291879e+00	1.177249096585620833e+02	-4.499425250879322213e+00
8.321246792954189004e+03	-4.499458034737174650e+00	1.177272646010064534e+02	-4.499454926714157033e+00
8.321250260120135863e+03	-4.499490518895594704e+00	1.177298191123300484e+02	-4.499487155631844537e+00
8.321253727286082722e+03	-4.499525554747157763e+00	1.177325730940083304e+02	-4.499521936374035747e+00
8.321257194452029580e+03	-4.499563140923006799e+00	1.177355264398323129e+02	-4.499559267581917155e+00
8.321260661617976439e+03	-4.499603275953823811e+00	1.177386790359085893e+02	-4.499599147796220500e+00
8.321264128783923297e+03	-4.499645958269918644e+00	1.177420307606637664e+02	-4.499641575457280496e+00
8.321267595949870156e+03	-4.499691186201281390e+00	1.177455814848510016e+02	-4.499686548905123651e+00
8.321271063115817014e+03	-4.499738957977632126e+00	1.177493310715517367e+02	-4.499734066379496689e+00
8.321274530281763873e+03	-4.499789271728519502e+00	1.177532793761818652e+02	-4.499784126019956254e+00
8.321277997447708913e+03	-4.499842125483300315e+00	1.177574262464924715e+02	-4.499836725865876019e+00
8.321281464613655771e+03	-4.499897517171349115e+00	1.177617715225819950e+02	-4.499891863856622543e+00
8.321284931779602630e+03	-4.499955444622183443e+00	1.177663150369080682e+02	-4.499949537831700042e+00
8.321288398945549488e+03	-4.500015905565365237e+00	1.177710566142790469e+02	-4.500009745530660688e+00
8.321291866111496347e+03	-4.500078897630658048e+00	1.177759960718646965e+02	-4.500072484593245825e+00
8.321295333277443206e+03	-4.500144418348154041e+00	1.177811332192047757e+02	-4.500137752559503213e+00
8.321298800443390064e+03	-4.500212465148377028e+00	1.177864678582180744e+02	-4.500205546869917583e+00
8.321302267609336923e+03	-4.500283035362330430e+00	1.177919997832043180e+02	-4.500275864865436404e+00
8.321305734775283781e+03	-4.500356126221632280e+00	1.177977287808538591e+02	-4.500348703787611981e+00
8.321309201941230640e+03	-4.500431734858618249e+00	1.178036546302549397e+02	-4.500424060778700053e+00
8.321312669107177499e+03	-4.500509858306497968e+00	1.178097771029053575e+02	-4.500501932881822320e+00
8.321316136273124357e+03	-4.500590493499372791e+00	1.178160959627130211e+02	-4.500582317040981550e+00
8.321319603439069397e+03	-4.500673637272428529e+00	1.178226109660095915e+02	-4.500665210101255198e+00
8.321323070605016255e+03	-4.500759286362023381e+00	1.178293218615564086e+02	-4.500750608808872677e+00
8.321326537770963114e+03	-4.500847437405884222e+00	1.178362283905584320e+02	-4.500838509811417865e+00
8.321330004936909972e+03	-4.500938086943182093e+00	1.178433302866709198e+02	-4.500928909657916144e+00
8.321333472102856831e+03	-4.501031231414640565e+00	1.178506272760048148e+02	-4.501021804798927661e+00
8.321336939268803690e+03	-4.501126867162727585e+00	1.178581190771412679e+02	-4.501117191586737398e+00
8.321340406434750548e+03	-4.501224990431770934e+00	1.178658054011400083e+02	-4.501215066275483068e+00
8.321343873600697407e+03	-4.501325597368117215e+00	1.178736859515500583e+02	-4.501315425021303440e+00
8.321347340766644265e+03	-4.501428684020324589e+00	1.178817604244237884e+02	-4.501418263882532855e+00
8.321350807932591124e+03	-4.501534246339089940e+00	1.178900285083105501e+02	-4.501523578819635496e+00
8.321354275098537983e+03	-4.501642280177773792e+00	1.178984898842934541e+02	-4.501631365695695663e+00
8.321357742264484841e+03	-4.501752781292412742e+00	1.179071442259951112e+02	-4.501741620276499489e+00
8.321361209430429881e+03	-4.501865745341731895e+00	1.179159911995708256e+02	-4.501854338230470098e+00
8.321364676596376739e+03	-4.501981167887481483e+00	1.179250304637380822e+02	-4.501969515129059296e+00
8.321368143762323598e+03	-4.502099044394563876e+00	1.179342616697826003e+02	-4.502087146446844379e+00
8.321371610928270456e+03	-4.502219370231185458e+00	1.179436844615703421e+02	-4.502207227561694225e+00
8.321375078094217315e+03	-4.502342140669064463e+00	1.179532984755610698e+02	-4.502329753754969133e+00
8.321378545260164174e+03	-4.502467350883605057e+00	1.179631033408206946e+02	-4.502454720211686912e+00
8.321382012426111032e+03	-4.502594995954105173e+00	1.179730986790377187e+02	-4.502582122020759137e+00
8.321385479592057891e+03	-4.502725070863926149e+00	1.179832841045325580e+02	-4.502711954175127929e+00
8.321388946758004749e+03	-4.502857570500708562e+00	1.179936592242739266e+02	-4.502844211571990662e+00
8.321392413923951608e+03	-4.502992489656591601e+00	1.180042236378954641e+02	-4.502978889013038888e+00
8.321395881089898467e+03	-4.503129823028340084e+00	1.180149769377024711e+02	-4.503115981204559581e+00
8.321399348255845325e+03	-4.503269565217636661e+00	1.180259187086934105e+02	-4.503255482757731798e+00
8.321402815421790365e+03	-4.503411710731229256e+00	1.180370485285710771e+02	-4.503397388188791872e+00
8.321406282587737223e+03	-4.503556253981197521e+00	1.180483659677598496e+02	-4.503541691919272338e+00
8.321409749753684082e+03	-4.503703189285102937e+00	1.180598705894180398e+02	-4.503688388276181342e+00
8.321413216919630941e+03	-4.503852510866306780e+00	1.180715619494579585e+02	-4.503837471492285971e+00
8.321416684085577799e+03	-4.504004212854127331e+00	1.180834395965596713e+02	-4.503988935706302321e+00
8.321420151251524658e+03	-4.504158289284049488e+00	1.180955030721835186e+02	-4.504142774963084683e+00
8.321423618417471516e+03	-4.504314734098057826e+00	1.181077519105946436e+02	-4.504298983213956831e+00
8.321427085583418375e+03	-4.504473541144771609e+00	1.181201856388729254e+02	-4.504457554316867451e+00
8.321430552749365233e+03	-4.504634704179738769e+00	1.181328037769326329e+02	-4.504618482036657490e+00
8.321434019915312092e+03	-4.504798216865641969e+00	1.181456058375378575e+02	-4.504781760045287520e+00
8.321437487081258951e+03	-4.504964072772589923e+00	1.181585913263219823e+02	-4.504947381922108640e+00
8.321440954247205809e+03	-4.505132265378347434e+00	1.181717597418055306e+02	-4.505115341154112052e+00
8.321444421413150849e+03	-4.505302788068601849e+00	1.181851105754134750e+02	-4.505285631136179525e+00
8.321447888579097707e+03	-4.505475634137183327e+00	1.181986433114920487e+02	-4.505458245171320542e+00
8.321451355745044566e+03	-4.505650796786344614e+00	1.182123574273267508e+02	-4.505633176470924539e+00
8.321454822910991425e+03	-4.505828269127110985e+00	1.182262523931687497e+02	-4.505810418155131281e+00
8.321458290076938283e+03	-4.506008044179426797e+00	1.182403276722454848e+02	-4.505989963252984509e+00
8.321461757242885142e+03	-4.506190114872469010e+00	1.182545827207809168e+02	-4.506171804702722383e+00
8.321465224408832000e+03	-4.506374474044942069e+00	1.182690169880177962e+02	-4.506355935352082120e+00
8.321468691574778859e+03	-4.506561114445355010e+00	1.182836299162370466e+02	-4.506542347958582440e+00
8.321472158740725718e+03	-4.506750028732309232e+00	1.182984209407781293e+02	-4.506731035189803336e+00
8.321475625906672576e+03	-4.506941209474767618e+00	1.183133894900579008e+02	-4.506921989623656977e+00
8.321479093072619435e+03	-4.507134649152351180e+00	1.183285349855917019e+02	-4.507115203748683463e+00
8.321482560238566293e+03	-4.507330340155625947e+00	1.183438568420139916e+02	-4.507310669964345706e+00
8.321486027404511333e+03	-4.507528274786428923e+00	1.183593544671008004e+02	-4.507508380581337626e+00
8.321489494570458191e+03	-4.507728445258146088e+00	1.183750272617901231e+02	-4.507708327821876360e+00
8.321492961736405050e+03	-4.507930843696019707e+00	1.183908746202028368e+02	-4.507910503820001580e+00
8.321496428902351909e+03	-4.508135462137440541e+00	1.184068959296653389e+02	-4.508114900621884580e+00
8.321499896068298767e+03	-4.508342292532311113e+00	1.184230905707315884e+02	-4.508321510186145353e+00
8.321503363234245626e+03	-4.508551326743341470e+00	1.184394579172100492e+02	-4.508530324384224741e+00
8.321506830400192484e+03	-4.508762556546288103e+00	1.184559973361733398e+02	-4.508741335000533645e+00
8.321510297566139343e+03	-4.508975973630413137e+00	1.184727081879976538e+02	-4.508954533732987713e+00
8.321513764732086202e+03	-4.509191569598698379e+00	1.184895898263734182e+02	-4.509169912193174312e+00
8.321517231898033060e+03	-4.509409335968211252e+00	1.185066415983331893e+02	-4.509387461906738892e+00
8.321520699063979919e+03	-4.509629264170450291e+00	1.185238628442755839e+02	-4.509607174313718048e+00
8.321524166229926777e+03	-4.509851345551662227e+00	1.185412528979892386e+02	-4.509829040768875252e+00
8.321527633395871817e+03	-4.510075571373207026e+00	1.185588110866764424e+02	-4.510053052542038365e+00
8.321531100561818675e+03	-4.510301932811849213e+00	1.185765367309760876e+02	-4.510279200818418488e+00
8.321534567727765534e+03	-4.510530420960177089e+00	1.185944291449923185e+02	-4.510507476699006091e+00
8.321538034893712393e+03	-4.510761026826886066e+00	1.186124876363151657e+02	-4.510737871200868554e+00
8.321541502059659251e+03	-4.510993741337147256e+00	1.186307115060463815e+02	-4.510970375257510767e+00
8.321544969225606110e+03	-4.511228555332987611e+00	1.186491000488281173e+02	-4.511204979719269481e+00
8.321548436391552968e+03	-4.511465459573619441e+00	1.186676525528632595e+02	-4.511441675353607295e+00
8.321551903557499827e+03	-4.511704444735799235e+00	1.186863682999448883e+02	-4.511680452845521216e+00
8.321555370723446686e+03	-4.511945501414243331e+00	1.187052465654829945e+02	-4.511921302797910371e+00
8.321558837889393544e+03	-4.512188620121866833e+00	1.187242866185233794e+02	-4.512164215731854888e+00
8.321562305055340403e+03	-4.512433791290280993e+00	1.187434877217811220e+02	-4.512409182087072423e+00
8.321565772221287261e+03	-4.512681005270264833e+00	1.187628491316771289e+02	-4.512656192222418206e+00
8.321569239387232301e+03	-4.512930252331920578e+00	1.187823700983481672e+02	-4.512905236416041355e+00
8.321572706553179160e+03	-4.513181522665136391e+00	1.188020498656787822e+02	-4.513156304865831636e+00
8.321576173719126018e+03	-4.513434806379994946e+00	1.188218876713321350e+02	-4.513409387689838681e+00
8.321579640885072877e+03	-4.513690093507168655e+00	1.188418827467773156e+02	-4.513664474926658343e+00
8.321583108051019735e+03	-4.513947373998268731e+00	1.188620343173148939e+02	-4.513921556535787971e+00
8.321586575216966594e+03	-4.514206637726275062e+00	1.188823416021076298e+02	-4.514180622398054510e+00
8.321590042382913452e+03	-4.514467874485886156e+00	1.189028038142056118e+02	-4.514441662315965331e+00
8.321593509548860311e+03	-4.514731073993946353e+00	1.189234201605767396e+02	-4.514704666014131007e+00
8.321596976714807170e+03	-4.514996225889909454e+00	1.189441898421403465e+02	-4.514969623139728938e+00
8.321600443880754028e+03	-4.515263319736114944e+00	1.189651120537872799e+02	-4.515236523262791124e+00
8.321603911046700887e+03	-4.515532345018294258e+00	1.189861859844153145e+02	-4.515505355876690885e+00
8.321607378212647745e+03	-4.515803291145989107e+00	1.190074108169601175e+02	-4.515776110398569188e+00
8.321610845378592785e+03	-4.516076147452910305e+00	1.190287857284212549e+02	-4.516048776169701462e+00
8.321614312544539644e+03	-4.516350903197376532e+00	1.190503098898934695e+02	-4.516323342455930145e+00
8.321617779710486502e+03	-4.516627547562742429e+00	1.190719824665966939e+02	-4.516599798448081238e+00
8.321621246876433361e+03	-4.516906069657835587e+00	1.190938026179095033e+02	-4.516878133262422601e+00
8.321624714042380219e+03	-4.517186458517281622e+00	1.191157694973906018e+02	-4.517158335940975711e+00
8.321628181208327078e+03	-4.517468703102155203e+00	1.191378822528263157e+02	-4.517440395452150703e+00
8.321631648374273936e+03	-4.517752792300216313e+00	1.191601400262492945e+02	-4.517724300691020822e+00
8.321635115540220795e+03	-4.518038714926398747e+00	1.191825419539722617e+02	-4.518010040479786937e+00
8.321638582706167654e+03	-4.518326459723287947e+00	1.192050871666218654e+02	-4.518297603568243836e+00
8.321642049872114512e+03	-4.518616015361502036e+00	1.192277747891682225e+02	-4.518586978634187901e+00
8.321645517038061371e+03	-4.518907370440165217e+00	1.192506039409577880e+02	-4.518878154283871851e+00
8.321648984204008229e+03	-4.519200513487386495e+00	1.192735737357488546e+02	-4.519171119052492358e+00
8.321652451369953269e+03	-4.519495432960605186e+00	1.192966832817352554e+02	-4.519465861404525775e+00
8.321655918535900128e+03	-4.519792117247153129e+00	1.193199316815888551e+02	-4.519762369734300123e+00
8.321659385701846986e+03	-4.520090554664696114e+00	1.193433180324903873e+02	-4.520060632366426745e+00
8.321662852867793845e+03	-4.520390733461655763e+00	1.193668414261604482e+02	-4.520360637556229300e+00
8.321666320033740703e+03	-4.520692641817674939e+00	1.193905009488939726e+02	-4.520662373490212715e+00
8.321669787199687562e+03	-4.520996267843998773e+00	1.194142956815863954e+02	-4.520965828286432675e+00
8.321673254365634421e+03	-4.521301599584202968e+00	1.194382246997868435e+02	-4.521270989995210599e+00
8.321676721531581279e+03	-4.521608625014453153e+00	1.194622870737199776e+02	-4.521577846599441841e+00
8.321680188697528138e+03	-4.521917332043967619e+00	1.194864818683158347e+02	-4.521886386015010473e+00
8.321683655863474996e+03	-4.522227708515566214e+00	1.195108081432515945e+02	-4.522196596091356824e+00
8.321687123029421855e+03	-4.522539742206088675e+00	1.195352649529823594e+02	-4.522508464611901147e+00
8.321690590195368713e+03	-4.522853420826900894e+00	1.195598513467761705e+02	-4.522821979294525896e+00
8.321694057361313753e+03	-4.523168732024433147e+00	1.195845663687559295e+02	-4.523137127792141499e+00
8.321697524527260612e+03	-4.523485663380575339e+00	1.196094090579265128e+02	-4.523453897693065606e+00
8.321700991693207470e+03	-4.523804202413206355e+00	1.196343784482136954e+02	-4.523772276521555114e+00
8.321704458859154329e+03	-4.524124336576689664e+00	1.196594735685016389e+02	-4.524092251738311532e+00
8.321707926025101187e+03	-4.524446053262278333e+00	1.196846934426599205e+02	-4.524413810740863795e+00
8.321711393191048046e+03	-4.524769339798827339e+00	1.197100370895979893e+02	-4.524736940864293011e+00
8.321714860356994905e+03	-4.525094183453080454e+00	1.197355035232858995e+02	-4.525061629381530004e+00
8.321718327522941763e+03	-4.525420571430201377e+00	1.197610917527926659e+02	-4.525387863503874897e+00
8.321721794688888622e+03	-4.525748490874371477e+00	1.197868007823288679e+02	-4.525715630381579757e+00
8.321725261854835480e+03	-4.526077928869248979e+00	1.198126296112836400e+02	-4.526044917104339760e+00
8.321728729020782339e+03	-4.526408872438425490e+00	1.198385772342549416e+02	-4.526375710701723953e+00
8.321732196186729198e+03	-4.526741308545974007e+00	1.198646426410917059e+02	-4.526707998143738365e+00
8.321735663352674237e+03	-4.527075224096967609e+00	1.198908248169309303e+02	-4.527041766341330487e+00
8.321739130518621096e+03	-4.527410605937894239e+00	1.199171227422293384e+02	-4.527377002146828033e+00
8.321742597684567954e+03	-4.527747440857393890e+00	1.199435353928145531e+02	-4.527713692354621067e+00
8.321746064850514813e+03	-4.528085715586653848e+00	1.199700617399197142e+02	-4.528051823701630063e+00
8.321749532016461671e+03	-4.528425416799885639e+00	1.199967007502139467e+02	-4.528391382867735793e+00
8.321752999182408530e+03	-4.528766531114888139e+00	1.200234513858461725e+02	-4.528732356476361076e+00
8.321756466348355389e+03	-4.529109045093539621e+00	1.200503126044794158e+02	-4.529074731094940631e+00
8.321759933514302247e+03	-4.529452945242424811e+00	1.200772833593399014e+02	-4.529418493235577436e+00
8.321763400680249106e+03	-4.529798218013252331e+00	1.201043625992450217e+02	-4.529763629355432641e+00
8.321766867846195964e+03	-4.530144849803471097e+00	1.201315492686508577e+02	-4.530110125857359726e+00
8.321770335012142823e+03	-4.530492826956781904e+00	1.201588423076907191e+02	-4.530457969090424974e+00
8.321773802178089682e+03	-4.530842135763545997e+00	1.201862406522019313e+02	-4.530807145350277843e+00
8.321777269344034721e+03	-4.531192762461516921e+00	1.202137432337831768e+02	-4.531157640879919235e+00
8.321780736509981580e+03	-4.531544693236254417e+00	1.202413489798249628e+02	-4.531509441870108290e+00
8.321784203675928438e+03	-4.531897914221741708e+00	1.202690568135523961e+02	-4.531862534459945024e+00
8.321787670841875297e+03	-4.532252411500926392e+00	1.202968656540704160e+02	-4.532216904737473406e+00
8.321791138007822155e+03	-4.532608171106208061e+00	1.203247744163956412e+02	-4.532572538740117452e+00
8.321794605173769014e+03	-4.532965179020039592e+00	1.203527820115023559e+02	-4.532929422455291402e+00
8.321798072339715873e+03	-4.533323421175508017e+00	1.203808873463676434e+02	-4.533287541821011679e+00
8.321801539505662731e+03	-4.533682883456735979e+00	1.204090893239980318e+02	-4.533646882726257488e+00
8.321805006671609590e+03	-4.534043551699557639e+00	1.204373868434821588e+02	-4.534007431011670697e+00
8.321808473837556448e+03	-4.534405411692065790e+00	1.204657788000305061e+02	-4.534369172470095855e+00
8.321811941003503307e+03	-4.534768449175191840e+00	1.204942640850187132e+02	-4.534732092847152174e+00
8.321815408169450166e+03	-4.535132649843252928e+00	1.205228415860286901e+02	-4.535096177841791310e+00
8.321818875335395205e+03	-4.535497999344467956e+00	1.205515101868879526e+02	-4.535461413106821382e+00
8.321822342501342064e+03	-4.535864483281621951e+00	1.205802687677177403e+02	-4.535827784249546468e+00
8.321825809667288922e+03	-4.536232087212431985e+00	1.206091162049613672e+02	-4.536195276832157397e+00
8.321829276833235781e+03	-4.536600796650304801e+00	1.206380513714405112e+02	-4.536563876372475157e+00
8.321832743999182640e+03	-4.536970597064851951e+00	1.206670731363932987e+02	-4.536933568344459822e+00
8.321836211165129498e+03	-4.537341473882439580e+00	1.206961803655168808e+02	-4.537304338178776320e+00
8.321839678331076357e+03	-4.537713412486788833e+00	1.207253719210111029e+02	-4.537676171263386848e+00
8.321843145497023215e+03	-4.538086398219544293e+00	1.207546466616221039e+02	-4.538049052944117534e+00
8.321846612662970074e+03	-4.538460416380765139e+00	1.207840034426784399e+02	-4.538422968525154033e+00
8.321850079828916932e+03	-4.538835452229704970e+00	1.208134411161502157e+02	-4.538797903269813361e+00
8.321853546994863791e+03	-4.539211490985218589e+00	1.208429585306792973e+02	-4.539173842400957781e+00
8.321857014160810650e+03	-4.539588517826391723e+00	1.208725545316274435e+02	-4.539550771101628079e+00
8.321860481326755689e+03	-4.539966517893139653e+00	1.209022279611200332e+02	-4.539928674515627094e+00
8.321863948492702548e+03	-4.540345476286764992e+00	1.209319776580896360e+02	-4.540307537748092592e+00
8.321867415658649406e+03	-4.540725378070571416e+00	1.209618024583213867e+02	-4.540687345866108338e+00
8.321870882824596265e+03	-4.541106208270408118e+00	1.209917011944933023e+02	-4.541068083899229890e+00
8.321874349990543124e+03	-4.541487951875341267e+00	1.210216726962288476e+02	-4.541449736840181828e+00
