# time(us)	tip(nm)	Fts(nN)	Xb(nm)
8.321201719796881662e+03	-1.468950465537123939e+00	1.339420702289638498e+01	-1.468951395738454568e+00
8.321205186962828520e+03	-1.468943553828443660e+00	1.339393236941489462e+01	-1.468944049424682596e+00
8.321208654128775379e+03	-1.468940988293743199e+00	1.339385185102795539e+01	-1.468941049265069854e+00
8.321212121294722238e+03	-1.468942769037557383e+00	1.339396547033674345e+01	-1.468942395381182653e+00
8.321215588460669096e+03	-1.468948895994108383e+00	1.339427322319657954e+01	-1.468948087724273766e+00
8.321219055626615955e+03	-1.468959368927310383e+00	1.339477509871727356e+01	-1.468958126075289083e+00
8.321222522792562813e+03	-1.468974187430764689e+00	1.339547107926253489e+01	-1.468972510044858515e+00
8.321225989958509672e+03	-1.468993350927793262e+00	1.339636114045128501e+01	-1.468991239073333066e+00
8.321229457124456530e+03	-1.469016858671447379e+00	1.339744525115747642e+01	-1.469014312430789726e+00
8.321232924290403389e+03	-1.469044709744531829e+00	1.339872337351038034e+01	-1.469041729217056114e+00
8.321236391456348429e+03	-1.469076903059656658e+00	1.340019546289603625e+01	-1.469073488361758884e+00
8.321239858622295287e+03	-1.469113437359272245e+00	1.340186146795792332e+01	-1.469109588624364138e+00
8.321243325788242146e+03	-1.469154311215709718e+00	1.340372133059738324e+01	-1.469150028594211621e+00
8.321246792954189004e+03	-1.469199523031240018e+00	1.340577498597480854e+01	-1.469194806690575339e+00
8.321250260120135863e+03	-1.469249071038148058e+00	1.340802236251161794e+01	-1.469243921162737276e+00
8.321253727286082722e+03	-1.469302953298770253e+00	1.341046338188996856e+01	-1.469297370090024257e+00
8.321257194452029580e+03	-1.469361167705591775e+00	1.341309795905519309e+01	-1.469355151381903202e+00
8.321260661617976439e+03	-1.469423711981323155e+00	1.341592600221724219e+01	-1.469417262778058175e+00
8.321264128783923297e+03	-1.469490583678981555e+00	1.341894741285197235e+01	-1.469483701848472545e+00
8.321267595949870156e+03	-1.469561780181996902e+00	1.342216208570337876e+01	-1.469554465993529568e+00
8.321271063115817014e+03	-1.469637298704288941e+00	1.342556990878463452e+01	-1.469629552444095877e+00
8.321274530281763873e+03	-1.469717136290387138e+00	1.342917076338046378e+01	-1.469708958261634946e+00
8.321277997447708913e+03	-1.469801289815545031e+00	1.343296452404933028e+01	-1.469792680338322555e+00
8.321281464613655771e+03	-1.469889755985856583e+00	1.343695105862557426e+01	-1.469880715397163362e+00
8.321284931779602630e+03	-1.469982531338378973e+00	1.344113022822150860e+01	-1.469973059992111475e+00
8.321288398945549488e+03	-1.470079612241273370e+00	1.344550188723038886e+01	-1.470069710508212557e+00
8.321291866111496347e+03	-1.470180994893935500e+00	1.345006588332843833e+01	-1.470170663161731950e+00
8.321295333277443206e+03	-1.470286675327140635e+00	1.345482205747767246e+01	-1.470275914000300332e+00
8.321298800443390064e+03	-1.470396649403197920e+00	1.345977024392875343e+01	-1.470385458903066711e+00
8.321302267609336923e+03	-1.470510912816104909e+00	1.346491027022375420e+01	-1.470499293580852074e+00
8.321305734775283781e+03	-1.470629461091716772e+00	1.347024195719940209e+01	-1.470617413576317922e+00
8.321309201941230640e+03	-1.470752289587914374e+00	1.347576511899027984e+01	-1.470739814264136802e+00
8.321312669107177499e+03	-1.470879393494778364e+00	1.348147956303165351e+01	-1.470866490851158837e+00
8.321316136273124357e+03	-1.471010767834779687e+00	1.348738509006347108e+01	-1.470997438376608013e+00
8.321319603439069397e+03	-1.471146407462963879e+00	1.349348149413360787e+01	-1.471132651712264483e+00
8.321323070605016255e+03	-1.471286307067148691e+00	1.349976856260144586e+01	-1.471272125562659516e+00
8.321326537770963114e+03	-1.471430461168125481e+00	1.350624607614168937e+01	-1.471415854465277562e+00
8.321330004936909972e+03	-1.471578864119872820e+00	1.351291380874840797e+01	-1.471563832790767856e+00
8.321333472102856831e+03	-1.471731510109771879e+00	1.351977152773918789e+01	-1.471716054743163804e+00
8.321336939268803690e+03	-1.471888393158817809e+00	1.352681899375865449e+01	-1.471872514360087258e+00
8.321340406434750548e+03	-1.472049507121852674e+00	1.353405596078315298e+01	-1.472033205512986331e+00
8.321343873600697407e+03	-1.472214845687809470e+00	1.354148217612525329e+01	-1.472198121907372093e+00
8.321347340766644265e+03	-1.472384402379947943e+00	1.354909738043853551e+01	-1.472367257083062597e+00
8.321350807932591124e+03	-1.472558170556097501e+00	1.355690130772166668e+01	-1.472540604414417587e+00
8.321354275098537983e+03	-1.472736143408920784e+00	1.356489368532383288e+01	-1.472718157110605830e+00
8.321357742264484841e+03	-1.472918313966160575e+00	1.357307423394912504e+01	-1.472899908215850262e+00
8.321361209430429881e+03	-1.473104675090910698e+00	1.358144266766168506e+01	-1.473085850609697323e+00
8.321364676596376739e+03	-1.473295219481890905e+00	1.358999869389101001e+01	-1.473275977007290738e+00
8.321368143762323598e+03	-1.473489939673727545e+00	1.359874201343756894e+01	-1.473470279959655072e+00
8.321371610928270456e+03	-1.473688828037230447e+00	1.360767232047756359e+01	-1.473668751853966397e+00
8.321375078094217315e+03	-1.473891876779699572e+00	1.361678930256964115e+01	-1.473871384913865601e+00
8.321378545260164174e+03	-1.474099077945202563e+00	1.362609264065929970e+01	-1.474078171199727061e+00
8.321382012426111032e+03	-1.474310423414897819e+00	1.363558200908590479e+01	-1.474289102608987934e+00
8.321385479592057891e+03	-1.474525904907335594e+00	1.364525707558816947e+01	-1.474504170876444586e+00
8.321388946758004749e+03	-1.474745513978773959e+00	1.365511750131035740e+01	-1.474723367574569677e+00
8.321392413923951608e+03	-1.474969242023508986e+00	1.366516294080887839e+01	-1.474946684113841666e+00
8.321395881089898467e+03	-1.475197080274192274e+00	1.367539304205816286e+01	-1.475174111743059679e+00
8.321399348255845325e+03	-1.475429019802174668e+00	1.368580744645783476e+01	-1.475405641549692115e+00
8.321402815421790365e+03	-1.475665051517845328e+00	1.369640578883898563e+01	-1.475641264460206603e+00
8.321406282587737223e+03	-1.475905166170974336e+00	1.370718769747117172e+01	-1.475880971240420392e+00
8.321409749753684082e+03	-1.476149354351071752e+00	1.371815279406941457e+01	-1.476124752495852732e+00
8.321413216919630941e+03	-1.476397606487748870e+00	1.372930069380155871e+01	-1.476372598672089476e+00
8.321416684085577799e+03	-1.476649912851079716e+00	1.374063100529530601e+01	-1.476624500055140565e+00
8.321420151251524658e+03	-1.476906263551975851e+00	1.375214333064582561e+01	-1.476880446771816846e+00
8.321423618417471516e+03	-1.477166648542570959e+00	1.376383726542367647e+01	-1.477140428790114424e+00
8.321427085583418375e+03	-1.477431057616589660e+00	1.377571239868170849e+01	-1.477404435919578818e+00
8.321430552749365233e+03	-1.477699480409750299e+00	1.378776831296377026e+01	-1.477672457811713524e+00
8.321434019915312092e+03	-1.477971906400166624e+00	1.380000458431265997e+01	-1.477944483960372812e+00
8.321437487081258951e+03	-1.478248324908733480e+00	1.381242078227796810e+01	-1.478220503702156297e+00
8.321440954247205809e+03	-1.478528725099552688e+00	1.382501646992485256e+01	-1.478500506216825938e+00
8.321444421413150849e+03	-1.478813095980338721e+00	1.383779120384243200e+01	-1.478784480527716605e+00
8.321447888579097707e+03	-1.479101426402836594e+00	1.385074453415215778e+01	-1.479072415502150628e+00
8.321451355745044566e+03	-1.479393705063261066e+00	1.386387600451727664e+01	-1.479364299851876563e+00
8.321454822910991425e+03	-1.479689920502717859e+00	1.387718515215135007e+01	-1.479660122133492406e+00
8.321458290076938283e+03	-1.479990061107646637e+00	1.389067150782748072e+01	-1.479959870748883022e+00
8.321461757242885142e+03	-1.480294115110260433e+00	1.390433459588751930e+01	-1.480263533945664456e+00
8.321465224408832000e+03	-1.480602070589003727e+00	1.391817393425183091e+01	-1.480571099817637792e+00
8.321468691574778859e+03	-1.480913915469012299e+00	1.393218903442895851e+01	-1.480882556305248343e+00
8.321472158740725718e+03	-1.481229637522572196e+00	1.394637940152555444e+01	-1.481197891196046834e+00
8.321475625906672576e+03	-1.481549224369590245e+00	1.396074453425616646e+01	-1.481517092125156365e+00
8.321479093072619435e+03	-1.481872663478069674e+00	1.397528392495360272e+01	-1.481840146575749362e+00
8.321482560238566293e+03	-1.482199942164577289e+00	1.398999705957864492e+01	-1.482167041879514091e+00
8.321486027404511333e+03	-1.482531047594739304e+00	1.400488341773096757e+01	-1.482497765217149155e+00
8.321489494570458191e+03	-1.482865966783732503e+00	1.401994247265965932e+01	-1.482832303618853542e+00
8.321492961736405050e+03	-1.483204686596790944e+00	1.403517369127455439e+01	-1.483170643964833557e+00
8.321496428902351909e+03	-1.483547193749697568e+00	1.405057653415667573e+01	-1.483512772985793537e+00
8.321499896068298767e+03	-1.483893474809299784e+00	1.406615045556970678e+01	-1.483858677263452108e+00
8.321503363234245626e+03	-1.484243516194026613e+00	1.408189490347141160e+01	-1.484208343231056437e+00
8.321506830400192484e+03	-1.484597304174411159e+00	1.409780931952520433e+01	-1.484561757173905150e+00
8.321510297566139343e+03	-1.484954824873618628e+00	1.411389313911203658e+01	-1.484918905229877462e+00
8.321513764732086202e+03	-1.485316064267960368e+00	1.413014579134139836e+01	-1.485279773389945657e+00
8.321517231898033060e+03	-1.485681008187453633e+00	1.414656669906427489e+01	-1.485644347498731088e+00
8.321520699063979919e+03	-1.486049642316359831e+00	1.416315527888531811e+01	-1.486012613255046633e+00
8.321524166229926777e+03	-1.486421952193734297e+00	1.417991094117525819e+01	-1.486384556212444474e+00
8.321527633395871817e+03	-1.486797923213976746e+00	1.419683309008319050e+01	-1.486760161779762779e+00
8.321531100561818675e+03	-1.487177540627393046e+00	1.421392112354967807e+01	-1.487139415221692795e+00
8.321534567727765534e+03	-1.487560789540770090e+00	1.423117443331991794e+01	-1.487522301659347512e+00
8.321538034893712393e+03	-1.487947654917945783e+00	1.424859240495685420e+01	-1.487908806070832313e+00
8.321541502059659251e+03	-1.488338121580382145e+00	1.426617441785464102e+01	-1.488298913291822512e+00
8.321544969225606110e+03	-1.488732174207756165e+00	1.428391984525219627e+01	-1.488692608016146002e+00
8.321548436391552968e+03	-1.489129797338538674e+00	1.430182805424682968e+01	-1.489089874796368562e+00
8.321551903557499827e+03	-1.489530975370595867e+00	1.431989840580831341e+01	-1.489490698044388939e+00
8.321555370723446686e+03	-1.489935692561787040e+00	1.433813025479317105e+01	-1.489895062032041029e+00
8.321558837889393544e+03	-1.490343933030565893e+00	1.435652294995868949e+01	-1.490302950891690736e+00
8.321562305055340403e+03	-1.490755680756608470e+00	1.437507583397827027e+01	-1.490714348616864582e+00
8.321565772221287261e+03	-1.491170919581409349e+00	1.439378824345550001e+01	-1.491129239062846779e+00
8.321569239387232301e+03	-1.491589633208918686e+00	1.441265950893955505e+01	-1.491547605947315613e+00
8.321572706553179160e+03	-1.492011805206156838e+00	1.443168895493996295e+01	-1.491969432850953847e+00
8.321576173719126018e+03	-1.492437419003853183e+00	1.445087589994226107e+01	-1.492394703218093088e+00
8.321579640885072877e+03	-1.492866457897085608e+00	1.447021965642357699e+01	-1.492823400357345953e+00
8.321583108051019735e+03	-1.493298905045925773e+00	1.448971953086859976e+01	-1.493255507442256880e+00
8.321586575216966594e+03	-1.493734743476074822e+00	1.450937482378498622e+01	-1.493691007511934288e+00
8.321590042382913452e+03	-1.494173956079532184e+00	1.452918482972018488e+01	-1.494129883471717379e+00
8.321593509548860311e+03	-1.494616525615257929e+00	1.454914883727808572e+01	-1.494572118093841606e+00
8.321596976714807170e+03	-1.495062434709818477e+00	1.456926612913482444e+01	-1.495017694018082155e+00
8.321600443880754028e+03	-1.495511665858069383e+00	1.458953598205618896e+01	-1.495466593752435402e+00
8.321603911046700887e+03	-1.495964201423832574e+00	1.460995766691470088e+01	-1.495918799673796373e+00
8.321607378212647745e+03	-1.496420023640562924e+00	1.463053044870654951e+01	-1.496374294028625540e+00
8.321610845378592785e+03	-1.496879114612039263e+00	1.465125358656912447e+01	-1.496833058933638494e+00
8.321614312544539644e+03	-1.497341456313066255e+00	1.467212633379925890e+01	-1.497295076376506051e+00
8.321617779710486502e+03	-1.497807030590152744e+00	1.469314793787060758e+01	-1.497760328216535264e+00
8.321621246876433361e+03	-1.498275819162224520e+00	1.471431764045209967e+01	-1.498228796185378631e+00
8.321624714042380219e+03	-1.498747803621332864e+00	1.473563467742660826e+01	-1.498700461887742197e+00
8.321628181208327078e+03	-1.499222965433344212e+00	1.475709827890875303e+01	-1.499175306802080554e+00
8.321631648374273936e+03	-1.499701285938673800e+00	1.477870766926411505e+01	-1.499653312281320039e+00
8.321635115540220795e+03	-1.500182746353005303e+00	1.480046206712868084e+01	-1.500134459553585708e+00
8.321638582706167654e+03	-1.500667327768008263e+00	1.482236068542756691e+01	-1.500618729722916100e+00
8.321642049872114512e+03	-1.501155011152073282e+00	1.484440273139469113e+01	-1.501106103769994871e+00
8.321645517038061371e+03	-1.501645777351052979e+00	1.486658740659290601e+01	-1.501596562552897085e+00
8.321648984204008229e+03	-1.502139607088993412e+00	1.488891390693353856e+01	-1.502090086807815750e+00
8.321652451369953269e+03	-1.502636480968873034e+00	1.491138142269626066e+01	-1.502586657149802329e+00
8.321655918535900128e+03	-1.503136379473369200e+00	1.493398913855020460e+01	-1.503086254073529693e+00
8.321659385701846986e+03	-1.503639282965603341e+00	1.495673623357436632e+01	-1.503588857954041069e+00
8.321662852867793845e+03	-1.504145171689898808e+00	1.497962188127837102e+01	-1.504094449047505444e+00
8.321666320033740703e+03	-1.504654025772556469e+00	1.500264524962403279e+01	-1.504603007491991828e+00
8.321669787199687562e+03	-1.505165825222607223e+00	1.502580550104611312e+01	-1.505114513308222435e+00
8.321673254365634421e+03	-1.505680549932590706e+00	1.504910179247413993e+01	-1.505628946400352275e+00
8.321676721531581279e+03	-1.506198179679338889e+00	1.507253327535438281e+01	-1.506146286556748315e+00
8.321680188697528138e+03	-1.506718694124756786e+00	1.509609909567194208e+01	-1.506666513450772626e+00
8.321683655863474996e+03	-1.507242072816606271e+00	1.511979839397292480e+01	-1.507189606641566204e+00
8.321687123029421855e+03	-1.507768295189308327e+00	1.514363030538740063e+01	-1.507715545574848326e+00
8.321690590195368713e+03	-1.508297340564727973e+00	1.516759395965174839e+01	-1.508244309583703702e+00
8.321694057361313753e+03	-1.508829188152976952e+00	1.519168848113178072e+01	-1.508775877889382500e+00
8.321697524527260612e+03	-1.509363817053217538e+00	1.521591298884600896e+01	-1.509310229602107256e+00
8.321700991693207470e+03	-1.509901206254476325e+00	1.524026659648913906e+01	-1.509847343721879565e+00
8.321704458859154329e+03	-1.510441334636469124e+00	1.526474841245655689e+01	-1.510387199139310965e+00
8.321707926025101187e+03	-1.510984180970398105e+00	1.528935753986735868e+01	-1.510929774636417200e+00
8.321711393191048046e+03	-1.511529723919791790e+00	1.531409307658932839e+01	-1.511475048887457984e+00
8.321714860356994905e+03	-1.512077942041326617e+00	1.533895411526313879e+01	-1.512023000459756128e+00
8.321718327522941763e+03	-1.512628813785653614e+00	1.536393974332713874e+01	-1.512573607814528653e+00
8.321721794688888622e+03	-1.513182317498247498e+00	1.538904904304268584e+01	-1.513126849307730115e+00
8.321725261854835480e+03	-1.513738431420233566e+00	1.541428109151902071e+01	-1.513682703190882606e+00
8.321728729020782339e+03	-1.514297133689240127e+00	1.543963496073902064e+01	-1.514241147611925964e+00
8.321732196186729198e+03	-1.514858402340238941e+00	1.546510971758482356e+01	-1.514802160616059323e+00
8.321735663352674237e+03	-1.515422215306416520e+00	1.549070442386435964e+01	-1.515365720146609974e+00
8.321739130518621096e+03	-1.515988550420003023e+00	1.551641813633672840e+01	-1.515931804045863585e+00
8.321742597684567954e+03	-1.516557385413155767e+00	1.554224990673956874e+01	-1.516500390055947722e+00
8.321746064850514813e+03	-1.517128697918812996e+00	1.556819878181529582e+01	-1.517071455819681614e+00
8.321749532016461671e+03	-1.517702465471573614e+00	1.559426380333880680e+01	-1.517644978881459883e+00
8.321752999182408530e+03	-1.518278665508565606e+00	1.562044400814447265e+01	-1.518220936688117861e+00
8.321756466348355389e+03	-1.518857275370316229e+00	1.564673842815344607e+01	-1.518799306589803999e+00
8.321759933514302247e+03	-1.519438272301631088e+00	1.567314609040136197e+01	-1.519380065840855387e+00
8.321763400680249106e+03	-1.520021633452494747e+00	1.569966601706716602e+01	-1.519963191600699037e+00
8.321766867846195964e+03	-1.520607335878952027e+00	1.572629722550108511e+01	-1.520548660934733842e+00
8.321770335012142823e+03	-1.521195356543993071e+00	1.575303872825298157e+01	-1.521136450815215646e+00
8.321773802178089682e+03	-1.521785672318462623e+00	1.577988953310163289e+01	-1.521726538122162076e+00
8.321777269344034721e+03	-1.522378259981950865e+00	1.580684864308364723e+01	-1.522318899644249157e+00
8.321780736509981580e+03	-1.522973096223698919e+00	1.583391505652271825e+01	-1.522913512079711484e+00
8.321784203675928438e+03	-1.523570157643501899e+00	1.586108776705926893e+01	-1.523510352037248161e+00
8.321787670841875297e+03	-1.524169420752633952e+00	1.588836576368079889e+01	-1.524109396036944508e+00
8.321791138007822155e+03	-1.524770861974751091e+00	1.591574803075161171e+01	-1.524710620511176229e+00
8.321794605173769014e+03	-1.525374457646812676e+00	1.594323354804338422e+01	-1.525314001805532227e+00
8.321798072339715873e+03	-1.525980184020001351e+00	1.597082129076574120e+01	-1.525919516179730318e+00
8.321801539505662731e+03	-1.526588017260654517e+00	1.599851022959742508e+01	-1.526527139808551148e+00
8.321805006671609590e+03	-1.527197933451186707e+00	1.602629933071732893e+01	-1.527136848782758793e+00
8.321808473837556448e+03	-1.527809908591032162e+00	1.605418755583638202e+01	-1.527748619110044226e+00
8.321811941003503307e+03	-1.528423918597573650e+00	1.608217386222898782e+01	-1.528362426715953237e+00
8.321815408169450166e+03	-1.529039939307073936e+00	1.611025720276465378e+01	-1.528978247444818139e+00
8.321818875335395205e+03	-1.529657946475631691e+00	1.613843652594084332e+01	-1.529596057060710779e+00
8.321822342501342064e+03	-1.530277915780126285e+00	1.616671077591553995e+01	-1.530215831248390224e+00
8.321825809667288922e+03	-1.530899822819164369e+00	1.619507889253992516e+01	-1.530837545614248008e+00
8.321829276833235781e+03	-1.531523643114024669e+00	1.622353981139099943e+01	-1.531461175687252485e+00
8.321832743999182640e+03	-1.532149352109622109e+00	1.625209246380543959e+01	-1.532086696919911617e+00
8.321836211165129498e+03	-1.532776925175461047e+00	1.628073577691281670e+01	-1.532714084689227985e+00
8.321839678331076357e+03	-1.533406337606605385e+00	1.630946867366984065e+01	-1.533343314297665794e+00
8.321843145497023215e+03	-1.534037564624634253e+00	1.633829007289409674e+01	-1.533974360974108997e+00
8.321846612662970074e+03	-1.534670581378624554e+00	1.636719888929908606e+01	-1.534607199874841399e+00
8.321850079828916932e+03	-1.535305362946108865e+00	1.639619403352825699e+01	-1.535241806084505889e+00
8.321853546994863791e+03	-1.535941884334058649e+00	1.642527441219032980e+01	-1.535878154617086322e+00
8.321857014160810650e+03	-1.536580120479847933e+00	1.645443892789399953e+01	-1.536516220416873413e+00
8.321860481326755689e+03	-1.537220046252240513e+00	1.648368647928336017e+01	-1.537155978359445729e+00
8.321863948492702548e+03	-1.537861636452381608e+00	1.651301596107441938e+01	-1.537797403252668227e+00
8.321867415658649406e+03	-1.538504865814761313e+00	1.654242626408979078e+01	-1.538440469837650149e+00
8.321870882824596265e+03	-1.539149709008233335e+00	1.657191627529632783e+01	-1.539085152789764877e+00
8.321874349990543124e+03	-1.539796140636993105e+00	1.660148487784116256e+01	-1.539731426719630036e+00
