# time(us)	tip(nm)	Fts(nN)	Xb(nm)
8.321201719796881662e+03	-4.907779657840014575e-01	-5.950513535733552573e+00	-4.907804846098207108e-01
8.321205186962828520e+03	-4.907564629873528705e-01	-5.951030522881701756e+00	-4.907583117165483233e-01
8.321208654128775379e+03	-4.907416615730915144e-01	-5.951374481339870570e+00	-4.907428401338778667e-01
8.321212121294722238e+03	-4.907335621168545936e-01	-5.951545405752059814e+00	-4.907340704633042505e-01
8.321215588460669096e+03	-4.907321649357014315e-01	-5.951543293894355990e+00	-4.907320030477448358e-01
8.321219055626615955e+03	-4.907374700881032004e-01	-5.951368146674069770e+00	-4.907366379715298321e-01
8.321222522792562813e+03	-4.907494773739382032e-01	-5.951019968129610760e+00	-4.907479750603966351e-01
8.321225989958509672e+03	-4.907681863344984796e-01	-5.950498765430830339e+00	-4.907660138814957662e-01
8.321229457124456530e+03	-4.907935962525038498e-01	-5.949804548880028854e+00	-4.907907537434031409e-01
8.321232924290403389e+03	-4.908257061521276166e-01	-5.948937331913422888e+00	-4.908221936961452148e-01
8.321236391456348429e+03	-4.908645147990275404e-01	-5.947897131103278667e+00	-4.908603325312298482e-01
8.321239858622295287e+03	-4.909100207003869731e-01	-5.946683966160636103e+00	-4.909051687816854970e-01
8.321243325788242146e+03	-4.909622221049665391e-01	-5.945297859938498242e+00	-4.909567007221126711e-01
8.321246792954189004e+03	-4.910211170031644201e-01	-5.943738838435641547e+00	-4.910149263687429433e-01
8.321250260120135863e+03	-4.910867031270825800e-01	-5.942006930801079001e+00	-4.910798434795042855e-01
8.321253727286082722e+03	-4.911589779506028708e-01	-5.940102169339003702e+00	-4.911514495540971748e-01
8.321257194452029580e+03	-4.912379386894749622e-01	-5.938024589514328433e+00	-4.912297418340802468e-01
8.321260661617976439e+03	-4.913235823014102666e-01	-5.935774229958759030e+00	-4.913147173029642212e-01
8.321264128783923297e+03	-4.914159054861862441e-01	-5.933351132477473477e+00	-4.914063726863149850e-01
8.321267595949870156e+03	-4.915149046857579251e-01	-5.930755342056357016e+00	-4.915047044518645047e-01
8.321271063115817014e+03	-4.916205760843805339e-01	-5.927986906869748829e+00	-4.916097088096324508e-01
8.321274530281763873e+03	-4.917329156087373865e-01	-5.925045878288862866e+00	-4.917213817120530961e-01
8.321277997447708913e+03	-4.918519189280821657e-01	-5.921932310890611895e+00	-4.918397188541162590e-01
8.321281464613655771e+03	-4.919775814543844716e-01	-5.918646262467063046e+00	-4.919647156735136306e-01
8.321284931779602630e+03	-4.921098983424891937e-01	-5.915187794035456470e+00	-4.920963673507948166e-01
8.321288398945549488e+03	-4.922488644902792698e-01	-5.911556969848737353e+00	-4.922346688095313727e-01
8.321291866111496347e+03	-4.923944745388524891e-01	-5.907753857406641274e+00	-4.923796147164916648e-01
8.321295333277443206e+03	-4.925467228727039570e-01	-5.903778527467324899e+00	-4.925311994818220573e-01
8.321298800443390064e+03	-4.927056036199193856e-01	-5.899631054059472746e+00	-4.926894172592409249e-01
8.321302267609336923e+03	-4.928711106523755991e-01	-5.895311514495046978e+00	-4.928542619462363272e-01
8.321305734775283781e+03	-4.930432375859515881e-01	-5.890819989382441335e+00	-4.930257271842771738e-01
8.321309201941230640e+03	-4.932219777807474448e-01	-5.886156562640219470e+00	-4.932038063590314936e-01
8.321312669107177499e+03	-4.934073243413114596e-01	-5.881321321511382649e+00	-4.933884926005923655e-01
8.321316136273124357e+03	-4.935992701168766539e-01	-5.876314356578144604e+00	-4.935797787837133410e-01
8.321319603439069397e+03	-4.937978077016092482e-01	-5.871135761777135365e+00	-4.937776575280560798e-01
8.321323070605016255e+03	-4.940029294348599609e-01	-5.865785634415244587e+00	-4.939821211984409266e-01
8.321326537770963114e+03	-4.942146274014290186e-01	-5.860264075185836141e+00	-4.941931619051111446e-01
8.321330004936909972e+03	-4.944328934318387159e-01	-5.854571188185522246e+00	-4.944107715040045870e-01
8.321333472102856831e+03	-4.946577191026136910e-01	-5.848707080931439428e+00	-4.946349415970323071e-01
8.321336939268803690e+03	-4.948890957365710830e-01	-5.842671864378941926e+00	-4.948656635323691044e-01
8.321340406434750548e+03	-4.951270144031215126e-01	-5.836465652939787141e+00	-4.951029284047526180e-01
8.321343873600697407e+03	-4.953714659185743940e-01	-5.830088564500851334e+00	-4.953467270557881941e-01
8.321347340766644265e+03	-4.956224408464564024e-01	-5.823540720443229901e+00	-4.955970500742662432e-01
8.321350807932591124e+03	-4.958799294978356587e-01	-5.816822245661853685e+00	-4.958538877964860370e-01
8.321354275098537983e+03	-4.961439219316574056e-01	-5.809933268585518285e+00	-4.961172303065895517e-01
8.321357742264484841e+03	-4.964144079550867339e-01	-5.802873921197376994e+00	-4.963870674369039171e-01
8.321361209430429881e+03	-4.966913771238621322e-01	-5.795644339055813887e+00	-4.966633887682946891e-01
8.321364676596376739e+03	-4.969748187426543118e-01	-5.788244661315879114e+00	-4.969461836305229530e-01
8.321368143762323598e+03	-4.972647218654389079e-01	-5.780675030751007526e+00	-4.972354411026163601e-01
8.321371610928270456e+03	-4.975610752958726235e-01	-5.772935593775237351e+00	-4.975311500132466591e-01
8.321375078094217315e+03	-4.978638675876828623e-01	-5.765026500465805448e+00	-4.978332989411164422e-01
8.321378545260164174e+03	-4.981730870450644111e-01	-5.756947904586141362e+00	-4.981418762153553836e-01
8.321382012426111032e+03	-4.984887217230842271e-01	-5.748699963609265495e+00	-4.984568699159250271e-01
8.321385479592057891e+03	-4.988107594280954404e-01	-5.740282838741602056e+00	-4.987782678740310116e-01
8.321388946758004749e+03	-4.991391877181619030e-01	-5.731696694947127746e+00	-4.991060576725462883e-01
8.321392413923951608e+03	-4.994739939034893994e-01	-5.722941700971868606e+00	-4.994402266464433859e-01
8.321395881089898467e+03	-4.998151650468667384e-01	-5.714018029368866713e+00	-4.997807618832322829e-01
8.321399348255845325e+03	-5.001626879641158929e-01	-5.704925856523376915e+00	-5.001276502234113241e-01
8.321402815421790365e+03	-5.005165492245510217e-01	-5.695665362678483667e+00	-5.004808782609246887e-01
8.321406282587737223e+03	-5.008767351514443744e-01	-5.686236731961077595e+00	-5.008404323436272954e-01
8.321409749753684082e+03	-5.012432318225055194e-01	-5.676640152408052309e+00	-5.012062985737633092e-01
8.321413216919630941e+03	-5.016160250703642909e-01	-5.666875815992947096e+00	-5.015784628084485330e-01
8.321416684085577799e+03	-5.019951004830659480e-01	-5.656943918652835634e+00	-5.019569106601641240e-01
8.321420151251524658e+03	-5.023804434045738843e-01	-5.646844660315531783e+00	-5.023416274972588580e-01
8.321423618417471516e+03	-5.027720389352812180e-01	-5.636578244927107129e+00	-5.027325984444596108e-01
8.321427085583418375e+03	-5.031698719325331526e-01	-5.626144880479638566e+00	-5.031298083833926071e-01
8.321430552749365233e+03	-5.035739270111547761e-01	-5.615544779039310264e+00	-5.035332419531107773e-01
8.321434019915312092e+03	-5.039841885439897418e-01	-5.604778156774743003e+00	-5.039428835506317705e-01
8.321437487081258951e+03	-5.044006406624478300e-01	-5.593845233985589971e+00	-5.043587173314834082e-01
8.321440954247205809e+03	-5.048232672570605040e-01	-5.582746235131367918e+00	-5.047807272102602383e-01
8.321444421413150849e+03	-5.052520519780464570e-01	-5.571481388860568984e+00	-5.052088968611860853e-01
8.321447888579097707e+03	-5.056869782358848209e-01	-5.560050928039936835e+00	-5.056432097186883690e-01
8.321451355745044566e+03	-5.061280292018990323e-01	-5.548455089784013694e+00	-5.060836489779791947e-01
8.321454822910991425e+03	-5.065751878088460280e-01	-5.536694115484912970e+00	-5.065301975956454372e-01
8.321458290076938283e+03	-5.070284367515177637e-01	-5.524768250842247319e+00	-5.069828382902484831e-01
8.321461757242885142e+03	-5.074877584873497272e-01	-5.512677745893278747e+00	-5.074415535429318558e-01
8.321465224408832000e+03	-5.079531352370396657e-01	-5.500422855043240133e+00	-5.079063255980387215e-01
8.321468691574778859e+03	-5.084245489851729749e-01	-5.488003837095835280e+00	-5.083771364637373891e-01
8.321472158740725718e+03	-5.089019814808583009e-01	-5.475420955283911262e+00	-5.088539679126554693e-01
8.321475625906672576e+03	-5.093854142383728023e-01	-5.462674477300244469e+00	-5.093368014825239154e-01
8.321479093072619435e+03	-5.098748285378130740e-01	-5.449764675328544250e+00	-5.098256184768276134e-01
8.321482560238566293e+03	-5.103702054257585052e-01	-5.436691826074500078e+00	-5.103203999654679635e-01
8.321486027404511333e+03	-5.108715257159416323e-01	-5.423456210797009902e+00	-5.108211267854316784e-01
8.321489494570458191e+03	-5.113787699899267070e-01	-5.410058115339522189e+00	-5.113277795414685745e-01
8.321492961736405050e+03	-5.118919185977977016e-01	-5.396497830161435694e+00	-5.118403386067801319e-01
8.321496428902351909e+03	-5.124109516588556401e-01	-5.382775650369648446e+00	-5.123587841237134954e-01
8.321499896068298767e+03	-5.129358490623232569e-01	-5.368891875750143150e+00	-5.128830960044677978e-01
8.321503363234245626e+03	-5.134665904680605353e-01	-5.354846810799659629e+00	-5.134132539318064792e-01
8.321506830400192484e+03	-5.140031553072871295e-01	-5.340640764757434766e+00	-5.139492373597802644e-01
8.321510297566139343e+03	-5.145455227833118927e-01	-5.326274051637009066e+00	-5.144910255144563571e-01
8.321513764732086202e+03	-5.150936718722758378e-01	-5.311746990258035872e+00	-5.150385973946589591e-01
8.321517231898033060e+03	-5.156475813239004280e-01	-5.297059904278144771e+00	-5.155919317727173379e-01
8.321520699063979919e+03	-5.162072296622456369e-01	-5.282213122224788115e+00	-5.161510071952234435e-01
8.321524166229926777e+03	-5.167725951864752254e-01	-5.267206977527189693e+00	-5.167158019837956306e-01
8.321527633395871817e+03	-5.173436559716322325e-01	-5.252041808548188584e+00	-5.172862942358542604e-01
8.321531100561818675e+03	-5.179203898694243469e-01	-5.236717958616102564e+00	-5.178624618254049627e-01
8.321534567727765534e+03	-5.185027745090137197e-01	-5.221235776056628808e+00	-5.184442824038282271e-01
8.321538034893712393e+03	-5.190907872978191007e-01	-5.205595614224618473e+00	-5.190317334006812056e-01
8.321541502059659251e+03	-5.196844054223270781e-01	-5.189797831535866379e+00	-5.196247920245066210e-01
8.321544969225606110e+03	-5.202836058489069826e-01	-5.173842791498844740e+00	-5.202234352636490033e-01
8.321548436391552968e+03	-5.208883653246400014e-01	-5.157730862746383593e+00	-5.208276398870804735e-01
8.321551903557499827e+03	-5.214986603781541774e-01	-5.141462419067208245e+00	-5.214373824452368522e-01
8.321555370723446686e+03	-5.221144673204685116e-01	-5.125037839437476705e+00	-5.220526392708595420e-01
8.321558837889393544e+03	-5.227357622458447262e-01	-5.108457508052167029e+00	-5.226733864798477347e-01
8.321562305055340403e+03	-5.233625210326499078e-01	-5.091721814356391818e+00	-5.232995999721186120e-01
8.321565772221287261e+03	-5.239947193442245910e-01	-5.074831153076576840e+00	-5.239312554324762061e-01
8.321569239387232301e+03	-5.246323326297609446e-01	-5.057785924251531284e+00	-5.245683283314876988e-01
8.321572706553179160e+03	-5.252753361251910613e-01	-5.040586533263344826e+00	-5.252107939263708225e-01
8.321576173719126018e+03	-5.259237048540802428e-01	-5.023233390868183434e+00	-5.258586272618874791e-01
8.321579640885072877e+03	-5.265774136285317208e-01	-5.005726913226906660e+00	-5.265118031712460178e-01
8.321583108051019735e+03	-5.272364370500981501e-01	-4.988067521935509063e+00	-5.271702962770128398e-01
8.321586575216966594e+03	-5.279007495107029824e-01	-4.970255644055398214e+00	-5.278340809920324395e-01
8.321590042382913452e+03	-5.285703251935678360e-01	-4.952291712143466640e+00	-5.285031315203549962e-01
8.321593509548860311e+03	-5.292451380741514111e-01	-4.934176164282016330e+00	-5.291774218581728473e-01
8.321596976714807170e+03	-5.299251619210937347e-01	-4.915909444108401694e+00	-5.298569257947650657e-01
8.321600443880754028e+03	-5.306103702971712854e-01	-4.897492000844505533e+00	-5.305416169134514748e-01
8.321603911046700887e+03	-5.313007365602590015e-01	-4.878924289325966335e+00	-5.312314685925534352e-01
8.321607378212647745e+03	-5.319962338643013933e-01	-4.860206770031168411e+00	-5.319264540063645130e-01
8.321610845378592785e+03	-5.326968351602919816e-01	-4.841339909109962036e+00	-5.326265461261296963e-01
8.321614312544539644e+03	-5.334025131972600642e-01	-4.822324178412211282e+00	-5.333317177210290527e-01
8.321617779710486502e+03	-5.341132405232654756e-01	-4.803160055515970583e+00	-5.340419413591748210e-01
8.321621246876433361e+03	-5.348289894864032279e-01	-4.783848023755437495e+00	-5.347571894086132760e-01
8.321624714042380219e+03	-5.355497322358167001e-01	-4.764388572248602571e+00	-5.354774340383368081e-01
8.321628181208327078e+03	-5.362754407227166009e-01	-4.744782195924606150e+00	-5.362026472193034410e-01
8.321631648374273936e+03	-5.370060867014095907e-01	-4.725029395550786049e+00	-5.369328007254637880e-01
8.321635115540220795e+03	-5.377416417303362284e-01	-4.705130677759408186e+00	-5.376678661347977783e-01
8.321638582706167654e+03	-5.384820771731140265e-01	-4.685086555074070347e+00	-5.384078148303583777e-01
8.321642049872114512e+03	-5.392273641995909417e-01	-4.664897545935802192e+00	-5.391526180013228586e-01
8.321645517038061371e+03	-5.399774737869073027e-01	-4.644564174728754047e+00	-5.399022466440540624e-01
8.321648984204008229e+03	-5.407323767205636234e-01	-4.624086971805595248e+00	-5.406566715631683229e-01
8.321652451369953269e+03	-5.414920435954980737e-01	-4.603466473512513701e+00	-5.414158633726113834e-01
8.321655918535900128e+03	-5.422564448171719453e-01	-4.582703222213858396e+00	-5.421797924967430848e-01
8.321659385701846986e+03	-5.430255506026628876e-01	-4.561797766316387559e+00	-5.429484291714300470e-01
8.321662852867793845e+03	-5.437993309817651388e-01	-4.540750660293135788e+00	-5.437217434451451226e-01
8.321666320033740703e+03	-5.445777557980995276e-01	-4.519562464706896598e+00	-5.444997051800763987e-01
8.321669787199687562e+03	-5.453607947102301345e-01	-4.498233746233249342e+00	-5.452822840532428605e-01
8.321673254365634421e+03	-5.461484171927879494e-01	-4.476765077683241500e+00	-5.460694495576181584e-01
8.321676721531581279e+03	-5.469405925376040756e-01	-4.455157038025592264e+00	-5.468611710032623696e-01
8.321680188697528138e+03	-5.477372898548523716e-01	-4.433410212408437800e+00	-5.476574175184633075e-01
8.321683655863474996e+03	-5.485384780741947575e-01	-4.411525192180713262e+00	-5.484581580508820497e-01
8.321687123029421855e+03	-5.493441259459382886e-01	-4.389502574913016986e+00	-5.492633613687093463e-01
8.321690590195368713e+03	-5.501542020421990031e-01	-4.367342964418085671e+00	-5.500729960618273573e-01
8.321694057361313753e+03	-5.509686747580737620e-01	-4.345046970770680694e+00	-5.508870305429820480e-01
8.321697524527260612e+03	-5.517875123128176407e-01	-4.322615210327160895e+00	-5.517054330489595815e-01
8.321700991693207470e+03	-5.526106827510334218e-01	-4.300048305744413213e+00	-5.525281716417739242e-01
8.321704458859154329e+03	-5.534381539438629760e-01	-4.277346885998399628e+00	-5.533552142098597804e-01
8.321707926025101187e+03	-5.542698935901916313e-01	-4.254511586402189849e+00	-5.541865284692728544e-01
8.321711393191048046e+03	-5.551058692178564291e-01	-4.231543048623398029e+00	-5.550220819649011039e-01
8.321714860356994905e+03	-5.559460481848628177e-01	-4.208441920701253558e+00	-5.558618420716781028e-01
8.321718327522941763e+03	-5.567903976806090061e-01	-4.185208857063041243e+00	-5.567057759958071728e-01
8.321721794688888622e+03	-5.576388847271186444e-01	-4.161844518540016580e+00	-5.575538507759941753e-01
8.321725261854835480e+03	-5.584914761802792782e-01	-4.138349572382853836e+00	-5.584060332846837449e-01
8.321728729020782339e+03	-5.593481387310890174e-01	-4.114724692276465312e+00	-5.592622902293071796e-01
8.321732196186729198e+03	-5.602088389069110885e-01	-4.090970558354316111e+00	-5.601225881535343287e-01
8.321735663352674237e+03	-5.610735430727338269e-01	-4.067087857212210444e+00	-5.609868934385339179e-01
8.321739130518621096e+03	-5.619422174324397723e-01	-4.043077281921422461e+00	-5.618551723042420898e-01
8.321742597684567954e+03	-5.628148280300812045e-01	-4.018939532041355456e+00	-5.627273908106362743e-01
8.321746064850514813e+03	-5.636913407511631169e-01	-3.994675313631538049e+00	-5.636035148590184951e-01
8.321749532016461671e+03	-5.645717213239322962e-01	-3.970285339263110558e+00	-5.644835101933027843e-01
8.321752999182408530e+03	-5.654559353206748407e-01	-3.945770328029653218e+00	-5.653673424013132554e-01
8.321756466348355389e+03	-5.663439481590204494e-01	-3.921131005557461968e+00	-5.662549769160857283e-01
8.321759933514302247e+03	-5.672357251032519310e-01	-3.896368104015222045e+00	-5.671463790171791253e-01
8.321763400680249106e+03	-5.681312312656260355e-01	-3.871482362122990573e+00	-5.680415138319928614e-01
8.321766867846195964e+03	-5.690304316076945090e-01	-3.846474525160705316e+00	-5.689403463370895642e-01
8.321770335012142823e+03	-5.699332909416393589e-01	-3.821345344975931813e+00	-5.698428413595281183e-01
8.321773802178089682e+03	-5.708397739316091180e-01	-3.796095579991086932e+00	-5.707489635781998194e-01
8.321777269344034721e+03	-5.717498450950643241e-01	-3.770725995209962544e+00	-5.716586775251736308e-01
8.321780736509981580e+03	-5.726634688041308818e-01	-3.745237362223641675e+00	-5.725719475870472142e-01
8.321784203675928438e+03	-5.735806092869574213e-01	-3.719630459215748974e+00	-5.734887380063063977e-01
8.321787670841875297e+03	-5.745012306290820936e-01	-3.693906070967075905e+00	-5.744090128826879749e-01
8.321791138007822155e+03	-5.754252967748030301e-01	-3.668064988859532694e+00	-5.753327361745526058e-01
8.321794605173769014e+03	-5.763527715285584607e-01	-3.642108010879436808e+00	-5.762598717002623827e-01
8.321798072339715873e+03	-5.772836185563098299e-01	-3.616035941620185490e+00	-5.771903831395638340e-01
8.321801539505662731e+03	-5.782178013869352373e-01	-3.589849592284181767e+00	-5.781242340349802555e-01
8.321805006671609590e+03	-5.791552834136260985e-01	-3.563549780684129420e+00	-5.790613877932091480e-01
8.321808473837556448e+03	-5.800960278952917992e-01	-3.537137331243668470e+00	-5.800018076865242067e-01
8.321811941003503307e+03	-5.810399979579697893e-01	-3.510613074997267269e+00	-5.809454568541870811e-01
8.321815408169450166e+03	-5.819871565962424498e-01	-3.483977849589521725e+00	-5.818922983038610219e-01
8.321818875335395205e+03	-5.829374666746611755e-01	-3.457232499273624082e+00	-5.828422949130368513e-01
8.321822342501342064e+03	-5.838908909291744553e-01	-3.430377874909267266e+00	-5.837954094304586006e-01
8.321825809667288922e+03	-5.848473919685632794e-01	-3.403414833959778285e+00	-5.847516044775593613e-01
8.321829276833235781e+03	-5.858069322758828745e-01	-3.376344240488584170e+00	-5.857108425499014670e-01
8.321832743999182640e+03	-5.867694742099093252e-01	-3.349166965154920295e+00	-5.866730860186242236e-01
8.321836211165129498e+03	-5.877349800065931884e-01	-3.321883885208904097e+00	-5.876382971318949711e-01
8.321839678331076357e+03	-5.887034117805191036e-01	-3.294495884485802772e+00	-5.886064380163691379e-01
8.321843145497023215e+03	-5.896747315263696221e-01	-3.267003853399679247e+00	-5.895774706786534036e-01
8.321846612662970074e+03	-5.906489011203970296e-01	-3.239408688936224134e+00	-5.905513570067763007e-01
8.321850079828916932e+03	-5.916258823218990548e-01	-3.211711294644921999e+00	-5.915280587716652549e-01
8.321853546994863791e+03	-5.926056367747012388e-01	-3.183912580630513744e+00	-5.925075376286252915e-01
8.321857014160810650e+03	-5.935881260086439681e-01	-3.156013463543638764e+00	-5.934897551188291764e-01
8.321860481326755689e+03	-5.945733114410773901e-01	-3.128014866570823838e+00	-5.944746726708078910e-01
8.321863948492702548e+03	-5.955611543783585482e-01	-3.099917719423723295e+00	-5.954622516019502099e-01
8.321867415658649406e+03	-5.965516160173562898e-01	-3.071722958327542052e+00	-5.964524531200066093e-01
