# time(us)	tip(nm)	Fts(nN)	Xb(nm)
8.321201719796881662e+03	-1.953460406731315491e+00	2.619946281062718896e+01	-1.953461083000753939e+00
8.321205186962828520e+03	-1.953455742964552933e+00	2.619925428450615357e+01	-1.953456037607854689e+00
8.321208654128775379e+03	-1.953454895537847458e+00	2.619924233942717962e+01	-1.953454808542953058e+00
8.321212121294722238e+03	-1.953457864489400286e+00	2.619942697568179213e+01	-1.953457395859230283e+00
8.321215588460669096e+03	-1.953464649707583156e+00	2.619980818642025255e+01	-1.953463799460043671e+00
8.321219055626615955e+03	-1.953475250930939211e+00	2.620038595765095479e+01	-1.953474019098917935e+00
8.321222522792562813e+03	-1.953489667748192327e+00	2.620116026824121391e+01	-1.953488054379558081e+00
8.321225989958509672e+03	-1.953507899598286413e+00	2.620213108991861972e+01	-1.953505904755883371e+00
8.321229457124456530e+03	-1.953529945770384746e+00	2.620329838727134586e+01	-1.953527569532039321e+00
8.321232924290403389e+03	-1.953555805403881962e+00	2.620466211774732912e+01	-1.953553047862389702e+00
8.321236391456348429e+03	-1.953585477488467337e+00	2.620622223165776177e+01	-1.953582338751597369e+00
8.321239858622295287e+03	-1.953618960864148102e+00	2.620797867217693167e+01	-1.953615441054632251e+00
8.321243325788242146e+03	-1.953656254221300959e+00	2.620993137534464523e+01	-1.953652353476834636e+00
8.321246792954189004e+03	-1.953697356100719151e+00	2.621208027006710850e+01	-1.953693074573951804e+00
8.321250260120135863e+03	-1.953742264893674196e+00	2.621442527811955614e+01	-1.953737602752206426e+00
8.321253727286082722e+03	-1.953790978841971393e+00	2.621696631414756951e+01	-1.953785936268346957e+00
8.321257194452029580e+03	-1.953843496038009109e+00	2.621970328566900932e+01	-1.953838073229709149e+00
8.321260661617976439e+03	-1.953899814424868930e+00	2.622263609307722732e+01	-1.953894011594301761e+00
8.321264128783923297e+03	-1.953959931796392269e+00	2.622576462964345367e+01	-1.953953749170888043e+00
8.321267595949870156e+03	-1.954023845797252301e+00	2.622908878151891798e+01	-1.954017283619053025e+00
8.321271063115817014e+03	-1.954091553923060776e+00	2.623260842773856538e+01	-1.954084612449311198e+00
8.321274530281763873e+03	-1.954163053520451721e+00	2.623632344022350082e+01	-1.954155733023189123e+00
8.321277997447708913e+03	-1.954238341787186251e+00	2.624023368378443877e+01	-1.954230642553329789e+00
8.321281464613655771e+03	-1.954317415772267807e+00	2.624433901612561471e+01	-1.954309338103610294e+00
8.321284931779602630e+03	-1.954400272376043191e+00	2.624863928784752432e+01	-1.954391816589233777e+00
8.321288398945549488e+03	-1.954486908350336671e+00	2.625313434245186528e+01	-1.954478074776874186e+00
8.321291866111496347e+03	-1.954577320298569232e+00	2.625782401634502250e+01	-1.954568109284785971e+00
8.321295333277443206e+03	-1.954671504675881577e+00	2.626270813884204713e+01	-1.954661916582931980e+00
8.321298800443390064e+03	-1.954769457789268028e+00	2.626778653217068893e+01	-1.954759492993114467e+00
8.321302267609336923e+03	-1.954871175797739058e+00	2.627305901147719425e+01	-1.954860834689136961e+00
8.321305734775283781e+03	-1.954976654712456297e+00	2.627852538483027445e+01	-1.954965937696938161e+00
8.321309201941230640e+03	-1.955085890396888182e+00	2.628418545322617561e+01	-1.955074797894747807e+00
8.321312669107177499e+03	-1.955198878566973386e+00	2.629003901059413906e+01	-1.955187411013251886e+00
8.321316136273124357e+03	-1.955315614791283574e+00	2.629608584380141423e+01	-1.955303772635750725e+00
8.321319603439069397e+03	-1.955436094491181942e+00	2.630232573265833906e+01	-1.955423878198320642e+00
8.321323070605016255e+03	-1.955560312941007295e+00	2.630875844992419132e+01	-1.955547722989994464e+00
8.321326537770963114e+03	-1.955688265268262116e+00	2.631538376131331347e+01	-1.955675302152948714e+00
8.321330004936909972e+03	-1.955819946453815517e+00	2.632220142550236730e+01	-1.955806610682709890e+00
8.321333472102856831e+03	-1.955955351332050896e+00	2.632921119413380495e+01	-1.955941643428299681e+00
8.321336939268803690e+03	-1.956094474591095089e+00	2.633641281182398330e+01	-1.956080395092460567e+00
8.321340406434750548e+03	-1.956237310773035976e+00	2.634380601617047901e+01	-1.956222860231876970e+00
8.321343873600697407e+03	-1.956383854274097445e+00	2.635139053775701257e+01	-1.956369033257348233e+00
8.321347340766644265e+03	-1.956534099344877209e+00	2.635916610016156980e+01	-1.956518908434025095e+00
8.321350807932591124e+03	-1.956688040090575509e+00	2.636713241996394785e+01	-1.956672479881637283e+00
8.321354275098537983e+03	-1.956845670471211607e+00	2.637528920675254795e+01	-1.956829741574711790e+00
8.321357742264484841e+03	-1.957006984301859376e+00	2.638363616313214877e+01	-1.956990687342805790e+00
8.321361209430429881e+03	-1.957171975252878671e+00	2.639217298473127826e+01	-1.957155310870741127e+00
8.321364676596376739e+03	-1.957340636850170013e+00	2.640089936021056616e+01	-1.957323605698851665e+00
8.321368143762323598e+03	-1.957512962475400631e+00	2.640981497126991329e+01	-1.957495565223218215e+00
8.321371610928270456e+03	-1.957688945366288236e+00	2.641891949265780326e+01	-1.957671182695939871e+00
8.321375078094217315e+03	-1.957868578616876132e+00	2.642821259218095520e+01	-1.957850451225416233e+00
8.321378545260164174e+03	-1.958051855177746603e+00	2.643769393071042373e+01	-1.958033363776564784e+00
8.321382012426111032e+03	-1.958238767856327778e+00	2.644736316219171357e+01	-1.958219913171113991e+00
8.321385479592057891e+03	-1.958429309317156530e+00	2.645721993365381053e+01	-1.958410092087881527e+00
8.321388946758004749e+03	-1.958623472082170247e+00	2.646726388521814854e+01	-1.958603893063046497e+00
8.321392413923951608e+03	-1.958821248531003478e+00	2.647749465010915415e+01	-1.958801308490464521e+00
8.321395881089898467e+03	-1.959022630901263717e+00	2.648791185466258469e+01	-1.959002330621931298e+00
8.321399348255845325e+03	-1.959227611288848703e+00	2.649851511833643869e+01	-1.959206951567500798e+00
8.321402815421790365e+03	-1.959436181648241293e+00	2.650930405372050558e+01	-1.959415163295785023e+00
8.321406282587737223e+03	-1.959648333792813002e+00	2.652027826654616405e+01	-1.959626957634251765e+00
8.321409749753684082e+03	-1.959864059395155289e+00	2.653143735569764772e+01	-1.959842326269556789e+00
8.321413216919630941e+03	-1.960083349987382650e+00	2.654278091322174049e+01	-1.960061260747846257e+00
8.321416684085577799e+03	-1.960306196961474789e+00	2.655430852433942590e+01	-1.960283752475100671e+00
8.321420151251524658e+03	-1.960532591569616345e+00	2.656601976745701776e+01	-1.960509792717466615e+00
8.321423618417471516e+03	-1.960762524924509531e+00	2.657791421417670819e+01	-1.960739372601580932e+00
8.321427085583418375e+03	-1.960995987999725410e+00	2.658999142930777282e+01	-1.960972483114911569e+00
8.321430552749365233e+03	-1.961232971630062938e+00	2.660225097087896629e+01	-1.961209115106118617e+00
8.321434019915312092e+03	-1.961473466511891139e+00	2.661469239014996546e+01	-1.961449259285400037e+00
8.321437487081258951e+03	-1.961717463203509260e+00	2.662731523162282343e+01	-1.961692906224841604e+00
8.321440954247205809e+03	-1.961964952125530459e+00	2.664011903305587126e+01	-1.961940046358811696e+00
8.321444421413150849e+03	-1.962215923561228426e+00	2.665310332547445071e+01	-1.962190669984300584e+00
8.321447888579097707e+03	-1.962470367656930614e+00	2.666626763318458870e+01	-1.962444767261313894e+00
8.321451355745044566e+03	-1.962728274422385732e+00	2.667961147378512976e+01	-1.962702328213238756e+00
8.321454822910991425e+03	-1.962989633731168748e+00	2.669313435818175506e+01	-1.962963342727252147e+00
8.321458290076938283e+03	-1.963254435321028613e+00	2.670683579059809887e+01	-1.963227800554667724e+00
8.321461757242885142e+03	-1.963522668794325909e+00	2.672071526859079427e+01	-1.963495691311365920e+00
8.321465224408832000e+03	-1.963794323618418547e+00	2.673477228306284914e+01	-1.963767004478187417e+00
8.321468691574778859e+03	-1.964069389126063214e+00	2.674900631827677699e+01	-1.964041729401329484e+00
8.321472158740725718e+03	-1.964347854515852143e+00	2.676341685187004060e+01	-1.964319855292783412e+00
8.321475625906672576e+03	-1.964629708852595691e+00	2.677800335486757177e+01	-1.964601371230718652e+00
8.321479093072619435e+03	-1.964914941067769094e+00	2.679276529169711907e+01	-1.964886266159923123e+00
8.321482560238566293e+03	-1.965203539959942791e+00	2.680770212020440013e+01	-1.965174528892240868e+00
8.321486027404511333e+03	-1.965495494195204307e+00	2.682281329166707806e+01	-1.965466148106985944e+00
8.321489494570458191e+03	-1.965790792307602342e+00	2.683809825081029032e+01	-1.965761112351393169e+00
8.321492961736405050e+03	-1.966089422699574651e+00	2.685355643582106566e+01	-1.966059410041039124e+00
8.321496428902351909e+03	-1.966391373642418561e+00	2.686918727836478382e+01	-1.966361029460315546e+00
8.321499896068298767e+03	-1.966696633276739492e+00	2.688499020360074354e+01	-1.966665958762876532e+00
8.321503363234245626e+03	-1.967005189612893279e+00	2.690096463019728290e+01	-1.966974185972083511e+00
8.321506830400192484e+03	-1.967317030531465116e+00	2.691710997034833142e+01	-1.967285698981476427e+00
8.321510297566139343e+03	-1.967632143783742737e+00	2.693342562979001897e+01	-1.967600485555250911e+00
8.321513764732086202e+03	-1.967950516992175158e+00	2.694991100781675897e+01	-1.967918533328719022e+00
8.321517231898033060e+03	-1.968272137650879383e+00	2.696656549729879515e+01	-1.968239829808808850e+00
8.321520699063979919e+03	-1.968596993126078942e+00	2.698338848469759910e+01	-1.968564362374514598e+00
8.321524166229926777e+03	-1.968925070656600163e+00	2.700037935008237966e+01	-1.968892118277375092e+00
8.321527633395871817e+03	-1.969256357354407294e+00	2.701753746715028370e+01	-1.969223084642021337e+00
8.321531100561818675e+03	-1.969590840205072135e+00	2.703486220324221279e+01	-1.969557248466641486e+00
8.321534567727765534e+03	-1.969928506068286289e+00	2.705235291936096687e+01	-1.969894596623491756e+00
8.321538034893712393e+03	-1.970269341678366093e+00	2.707000897018918906e+01	-1.970235115859403363e+00
8.321541502059659251e+03	-1.970613333644768206e+00	2.708782970410752355e+01	-1.970578792796295442e+00
8.321544969225606110e+03	-1.970960468452600090e+00	2.710581446321276999e+01	-1.970925613931687526e+00
8.321548436391552968e+03	-1.971310732463157356e+00	2.712396258333701127e+01	-1.971275565639232230e+00
8.321551903557499827e+03	-1.971664111914438466e+00	2.714227339406587092e+01	-1.971628634169233951e+00
8.321555370723446686e+03	-1.972020592921683635e+00	2.716074621875790385e+01	-1.971984805649184436e+00
8.321558837889393544e+03	-1.972380161477918392e+00	2.717938037456407230e+01	-1.972344066084305680e+00
8.321562305055340403e+03	-1.972742803454489380e+00	2.719817517244699800e+01	-1.972706401358089057e+00
8.321565772221287261e+03	-1.973108504601602808e+00	2.721712991720012198e+01	-1.973071797232829994e+00
8.321569239387232301e+03	-1.973477250548890671e+00	2.723624390746823920e+01	-1.973440239350191749e+00
8.321572706553179160e+03	-1.973849026805961415e+00	2.725551643576756078e+01	-1.973811713231761411e+00
8.321576173719126018e+03	-1.974223818762966598e+00	2.727494678850602838e+01	-1.974186204279609447e+00
8.321579640885072877e+03	-1.974601611691163550e+00	2.729453424600392708e+01	-1.974563697776856364e+00
8.321583108051019735e+03	-1.974982390743488692e+00	2.731427808251483924e+01	-1.974944178888246693e+00
8.321586575216966594e+03	-1.975366140955140182e+00	2.733417756624675121e+01	-1.975327632660726529e+00
8.321590042382913452e+03	-1.975752847244127919e+00	2.735423195938194851e+01	-1.975714044023996419e+00
8.321593509548860311e+03	-1.976142494411897932e+00	2.737444051810042112e+01	-1.976103397791133309e+00
8.321596976714807170e+03	-1.976535067143900815e+00	2.739480249260051181e+01	-1.976495678659161870e+00
8.321600443880754028e+03	-1.976930550010195686e+00	2.741531712712105318e+01	-1.976890871209651790e+00
8.321603911046700887e+03	-1.977328927466023512e+00	2.743598365996275490e+01	-1.977288959909299537e+00
8.321607378212647745e+03	-1.977730183852440593e+00	2.745680132351146696e+01	-1.977689929110552525e+00
8.321610845378592785e+03	-1.978134303396902549e+00	2.747776934425989737e+01	-1.978093763052198861e+00
8.321614312544539644e+03	-1.978541270213905356e+00	2.749888694283168178e+01	-1.978500445860002177e+00
8.321617779710486502e+03	-1.978951068305563998e+00	2.752015333400274955e+01	-1.978909961547289376e+00
8.321621246876433361e+03	-1.979363681562266164e+00	2.754156772672585518e+01	-1.979322294015591899e+00
8.321624714042380219e+03	-1.979779093763285314e+00	2.756312932415347916e+01	-1.979737427055265453e+00
8.321628181208327078e+03	-1.980197288577405734e+00	2.758483732366153518e+01	-1.980155344346115953e+00
8.321631648374273936e+03	-1.980618249563560918e+00	2.760669091687324084e+01	-1.980576029458033460e+00
8.321635115540220795e+03	-1.981041960171481264e+00	2.762868928968354609e+01	-1.980999465851638330e+00
8.321638582706167654e+03	-1.981468403742338014e+00	2.765083162228402003e+01	-1.981425636878930030e+00
8.321642049872114512e+03	-1.981897563509364968e+00	2.767311708918580138e+01	-1.981854525783907306e+00
8.321645517038061371e+03	-1.982329422598524182e+00	2.769554485924511056e+01	-1.982286115703228768e+00
8.321648984204008229e+03	-1.982763964029160997e+00	2.771811409568827500e+01	-1.982720389666871474e+00
8.321652451369953269e+03	-1.983201170714685713e+00	2.774082395613817198e+01	-1.983157330598809942e+00
8.321655918535900128e+03	-1.983641025463191321e+00	2.776367359263754864e+01	-1.983596921317640316e+00
8.321659385701846986e+03	-1.984083510978163600e+00	2.778666215167621800e+01	-1.984039144537277588e+00
8.321662852867793845e+03	-1.984528609859129711e+00	2.780978877421635076e+01	-1.984483982867613516e+00
8.321666320033740703e+03	-1.984976304602351416e+00	2.783305259571933732e+01	-1.984931418815207405e+00
8.321669787199687562e+03	-1.985426577601491216e+00	2.785645274617129630e+01	-1.985381434783949794e+00
8.321673254365634421e+03	-1.985879411148308460e+00	2.787998835011059029e+01	-1.985834013075761240e+00
8.321676721531581279e+03	-1.986334787433334359e+00	2.790365852665342317e+01	-1.986289135891262436e+00
8.321680188697528138e+03	-1.986792688546598740e+00	2.792746238952312154e+01	-1.986746785330502085e+00
8.321683655863474996e+03	-1.987253096478284187e+00	2.795139904707524181e+01	-1.987206943393617475e+00
8.321687123029421855e+03	-1.987715993119436586e+00	2.797546760232545182e+01	-1.987669591981538142e+00
8.321690590195368713e+03	-1.988181360262669450e+00	2.799966715297706443e+01	-1.988134712896685530e+00
8.321694057361313753e+03	-1.988649179602896000e+00	2.802399679145034739e+01	-1.988602287843711069e+00
8.321697524527260612e+03	-1.989119432738036375e+00	2.804845560491080647e+01	-1.989072298430203389e+00
8.321700991693207470e+03	-1.989592101169710192e+00	2.807304267529604047e+01	-1.989544726167380206e+00
8.321704458859154329e+03	-1.990067166303970403e+00	2.809775707934522515e+01	-1.990019552470818187e+00
8.321707926025101187e+03	-1.990544609452029379e+00	2.812259788862800391e+01	-1.990496758661181032e+00
8.321711393191048046e+03	-1.991024411830963903e+00	2.814756416957264307e+01	-1.990976325964926241e+00
8.321714860356994905e+03	-1.991506554564496767e+00	2.817265498349761188e+01	-1.991458235515078057e+00
8.321718327522941763e+03	-1.991991018683705317e+00	2.819786938664026010e+01	-1.991942468351946438e+00
8.321721794688888622e+03	-1.992477785127743983e+00	2.822320643018543507e+01	-1.992429005423844712e+00
8.321725261854835480e+03	-1.992966834744592353e+00	2.824866516029591423e+01	-1.992917827587834534e+00
8.321728729020782339e+03	-1.993458148291826548e+00	2.827424461814400303e+01	-1.993408915610501708e+00
8.321732196186729198e+03	-1.993951706437343985e+00	2.829994383994056761e+01	-1.993902250168674284e+00
8.321735663352674237e+03	-1.994447489760129644e+00	2.832576185696670379e+01	-1.994397811850198377e+00
8.321739130518621096e+03	-1.994945478751005030e+00	2.835169769560392439e+01	-1.994895581154674247e+00
8.321742597684567954e+03	-1.995445653813405995e+00	2.837775037736647477e+01	-1.995395538494243448e+00
8.321746064850514813e+03	-1.995947995264128361e+00	2.840391891893173693e+01	-1.995897664194330678e+00
8.321749532016461671e+03	-1.996452483334089534e+00	2.843020233217175274e+01	-1.996401938494408279e+00
8.321752999182408530e+03	-1.996959098169114100e+00	2.845659962418530498e+01	-1.996908341548773169e+00
8.321756466348355389e+03	-1.997467819830717861e+00	2.848310979733098947e+01	-1.997416853427337768e+00
8.321759933514302247e+03	-1.997978628296874781e+00	2.850973184925880233e+01	-1.997927454116395163e+00
8.321763400680249106e+03	-1.998491503462802577e+00	2.853646477294304162e+01	-1.998440123519403810e+00
8.321766867846195964e+03	-1.999006425141733434e+00	2.856330755671428889e+01	-1.998954841457759590e+00
8.321770335012142823e+03	-1.999523373065710041e+00	2.859025918429270519e+01	-1.999471587671586503e+00
8.321773802178089682e+03	-2.000042326886377619e+00	2.861731863482164684e+01	-1.999990341820536033e+00
8.321777269344034721e+03	-2.000563266175777510e+00	2.864448488290072703e+01	-2.000511083484573405e+00
8.321780736509981580e+03	-2.001086170427159860e+00	2.867175689862044408e+01	-2.001033792164791159e+00
8.321784203675928438e+03	-2.001611019055752116e+00	2.869913364759459640e+01	-2.001558447284183195e+00
8.321787670841875297e+03	-2.002137791399592359e+00	2.872661409099563556e+01	-2.002085028188469451e+00
8.321791138007822155e+03	-2.002666466720322003e+00	2.875419718558869064e+01	-2.002613514146898144e+00
8.321794605173769014e+03	-2.003197024204005139e+00	2.878188188376601175e+01	-2.003143884353050463e+00
8.321798072339715873e+03	-2.003729442961933671e+00	2.880966713358199982e+01	-2.003676117925659472e+00
8.321801539505662731e+03	-2.004263702031460426e+00	2.883755187878894333e+01	-2.004210193909436111e+00
8.321805006671609590e+03	-2.004799780376792739e+00	2.886553505887096449e+01	-2.004746091275866338e+00
8.321808473837556448e+03	-2.005337656889822906e+00	2.889361560907965298e+01	-2.005283788924034472e+00
8.321811941003503307e+03	-2.005877310390953738e+00	2.892179246047039598e+01	-2.005823265681458079e+00
8.321815408169450166e+03	-2.006418719629950775e+00	2.895006453993876860e+01	-2.006364500304925524e+00
8.321818875335395205e+03	-2.006961863286750081e+00	2.897843077025628844e+01	-2.006907471481320204e+00
8.321822342501342064e+03	-2.007506719972288245e+00	2.900689007010638321e+01	-2.007452157828441219e+00
8.321825809667288922e+03	-2.008053268229354149e+00	2.903544135412147398e+01	-2.007998537895854696e+00
8.321829276833235781e+03	-2.008601486533402980e+00	2.906408353291885049e+01	-2.008546590165710466e+00
8.321832743999182640e+03	-2.009151353293440856e+00	2.909281551313966574e+01	-2.009096293053621363e+00
8.321836211165129498e+03	-2.009702846852835734e+00	2.912163619748472243e+01	-2.009647624909481234e+00
8.321839678331076357e+03	-2.010255945490184715e+00	2.915054448475291338e+01	-2.010200564018327363e+00
8.321843145497023215e+03	-2.010810627420133390e+00	2.917953926987726732e+01	-2.010755088601161145e+00
8.321846612662970074e+03	-2.011366870794278672e+00	2.920861944396524734e+01	-2.011311176815844259e+00
8.321850079828916932e+03	-2.011924653701991694e+00	2.923778389433594427e+01	-2.011868806757935335e+00
8.321853546994863791e+03	-2.012483954171275791e+00	2.926703150455766078e+01	-2.012427956461532830e+00
8.321857014160810650e+03	-2.013044750169620922e+00	2.929636115448676392e+01	-2.012988603900141005e+00
8.321860481326755689e+03	-2.013607019604901627e+00	2.932577172030786272e+01	-2.013550726987555883e+00
8.321863948492702548e+03	-2.014170740326207465e+00	2.935526207457134973e+01	-2.014114303578707244e+00
8.321867415658649406e+03	-2.014735890124719653e+00	2.938483108623299245e+01	-2.014679311470528145e+00
8.321870882824596265e+03	-2.015302446734580144e+00	2.941447762069327254e+01	-2.015245728402824454e+00
8.321874349990543124e+03	-2.015870387833796240e+00	2.944420053983853691e+01	-2.015813532059177238e+00
