# time(us)	tip(nm)	Fts(nN)	Xb(nm)
8.321201719796881662e+03	6.612477188971563891e+00	-6.807188633191579505e-03	-1.876693007630894638e-01
8.321205186962828520e+03	6.636855654026441620e+00	-6.759988116959793174e-03	-1.876674591870531039e-01
8.321208654128775379e+03	6.661123187629161890e+00	-6.713488020517072510e-03	-1.876656180274076935e-01
8.321212121294722238e+03	6.685278811884165506e+00	-6.667676947439924243e-03	-1.876637772840335228e-01
8.321215588460669096e+03	6.709321552276852785e+00	-6.622543742294887716e-03	-1.876619369568110207e-01
8.321219055626615955e+03	6.733250437719322967e+00	-6.578077484884729473e-03	-1.876600970456202833e-01
8.321222522792562813e+03	6.757064500596310808e+00	-6.534267484654217653e-03	-1.876582575503419337e-01
8.321225989958509672e+03	6.780762776811261716e+00	-6.491103275250617241e-03	-1.876564184708564842e-01
8.321229457124456530e+03	6.804344305832620066e+00	-6.448574609234036803e-03	-1.876545798070443916e-01
8.321232924290403389e+03	6.827808130740252501e+00	-6.406671452933122499e-03	-1.876527415587860015e-01
8.321236391456348429e+03	6.851153298272040892e+00	-6.365383981441613374e-03	-1.876509037259620760e-01
8.321239858622295287e+03	6.874378858870639597e+00	-6.324702573751446281e-03	-1.876490663084532107e-01
8.321243325788242146e+03	6.897483866730378388e+00	-6.284617808018311269e-03	-1.876472293061397789e-01
8.321246792954189004e+03	6.920467379844295941e+00	-6.245120456955659781e-03	-1.876453927189027093e-01
8.321250260120135863e+03	6.943328460051353623e+00	-6.206201483353209619e-03	-1.876435565466225697e-01
8.321253727286082722e+03	6.966066173083746094e+00	-6.167852035716316766e-03	-1.876417207891801775e-01
8.321257194452029580e+03	6.988679588614377991e+00	-6.130063444022507829e-03	-1.876398854464563781e-01
8.321260661617976439e+03	7.011167780304440988e+00	-6.092827215591753963e-03	-1.876380505183317671e-01
8.321264128783923297e+03	7.033529825851131179e+00	-6.056135031067068006e-03	-1.876362160046873839e-01
8.321267595949870156e+03	7.055764807035461494e+00	-6.019978740502176552e-03	-1.876343819054039908e-01
8.321271063115817014e+03	7.077871809770207356e+00	-5.984350359553070736e-03	-1.876325482203624051e-01
8.321274530281763873e+03	7.099849924147950020e+00	-5.949242065770462412e-03	-1.876307149494438886e-01
8.321277997447708913e+03	7.121698244489196306e+00	-5.914646194990109095e-03	-1.876288820925291201e-01
8.321281464613655771e+03	7.143415869390638662e+00	-5.880555237818191339e-03	-1.876270496494992224e-01
8.321284931779602630e+03	7.165001901773471182e+00	-5.846961836208995622e-03	-1.876252176202352628e-01
8.321288398945549488e+03	7.186455448931769574e+00	-5.813858780132206971e-03	-1.876233860046183921e-01
8.321291866111496347e+03	7.207775622580997243e+00	-5.781239004327216185e-03	-1.876215548025297053e-01
8.321295333277443206e+03	7.228961538906551354e+00	-5.749095585141963602e-03	-1.876197240138502975e-01
8.321298800443390064e+03	7.250012318612356843e+00	-5.717421737453917685e-03	-1.876178936384614304e-01
8.321302267609336923e+03	7.270927086969564357e+00	-5.686210811670729462e-03	-1.876160636762442546e-01
8.321305734775283781e+03	7.291704973865250849e+00	-5.655456290808502824e-03	-1.876142341270801706e-01
8.321309201941230640e+03	7.312345113851204559e+00	-5.625151787645251214e-03	-1.876124049908503288e-01
8.321312669107177499e+03	7.332846646192706430e+00	-5.595291041947618622e-03	-1.876105762674361022e-01
8.321316136273124357e+03	7.353208714917399469e+00	-5.565867917768635778e-03	-1.876087479567189464e-01
8.321319603439069397e+03	7.373430468864119902e+00	-5.536876400814668385e-03	-1.876069200585803176e-01
8.321323070605016255e+03	7.393511061731802947e+00	-5.508310595879506097e-03	-1.876050925729014496e-01
8.321326537770963114e+03	7.413449652128370815e+00	-5.480164724343788984e-03	-1.876032654995638815e-01
8.321330004936909972e+03	7.433245403619622493e+00	-5.452433121737972586e-03	-1.876014388384493470e-01
8.321333472102856831e+03	7.452897484778135961e+00	-5.425110235367023963e-03	-1.875996125894391353e-01
8.321336939268803690e+03	7.472405069232164188e+00	-5.398190621995164334e-03	-1.875977867524149800e-01
8.321340406434750548e+03	7.491767335714504483e+00	-5.371668945589071903e-03	-1.875959613272584758e-01
8.321343873600697407e+03	7.510983468111338546e+00	-5.345539975117883855e-03	-1.875941363138511342e-01
8.321347340766644265e+03	7.530052655511065396e+00	-5.319798582408428490e-03	-1.875923117120748829e-01
8.321350807932591124e+03	7.548974092253084578e+00	-5.294439740054319651e-03	-1.875904875218111778e-01
8.321354275098537983e+03	7.567746977976530509e+00	-5.269458519377297548e-03	-1.875886637429419745e-01
8.321357742264484841e+03	7.586370517668961533e+00	-5.244850088439528824e-03	-1.875868403753490343e-01
8.321361209430429881e+03	7.604843921715020549e+00	-5.220609710105431241e-03	-1.875850174189142294e-01
8.321364676596376739e+03	7.623166405944976631e+00	-5.196732740151749699e-03	-1.875831948735192656e-01
8.321368143762323598e+03	7.641337191683232000e+00	-5.173214625424585149e-03	-1.875813727390462926e-01
8.321371610928270456e+03	7.659355505796702879e+00	-5.150050902042162954e-03	-1.875795510153769885e-01
8.321375078094217315e+03	7.677220580743176370e+00	-5.127237193642016251e-03	-1.875777297023934476e-01
8.321378545260164174e+03	7.694931654619536765e+00	-5.104769209671589439e-03	-1.875759087999777086e-01
8.321382012426111032e+03	7.712487971209887938e+00	-5.082642743720978962e-03	-1.875740883080116717e-01
8.321385479592057891e+03	7.729888780033578932e+00	-5.060853671896816536e-03	-1.875722682263776808e-01
8.321388946758004749e+03	7.747133336393090985e+00	-5.039397951236194127e-03	-1.875704485549575806e-01
8.321392413923951608e+03	7.764220901421804655e+00	-5.018271618159568168e-03	-1.875686292936335486e-01
8.321395881089898467e+03	7.781150742131663911e+00	-4.997470786961643804e-03	-1.875668104422878735e-01
8.321399348255845325e+03	7.797922131460664374e+00	-4.976991648339347540e-03	-1.875649920008027605e-01
8.321402815421790365e+03	7.814534348320204771e+00	-4.956830467955810129e-03	-1.875631739690603317e-01
8.321406282587737223e+03	7.830986677642283844e+00	-4.936983585039579972e-03	-1.875613563469431533e-01
8.321409749753684082e+03	7.847278410426537398e+00	-4.917447411018053931e-03	-1.875595391343332363e-01
8.321413216919630941e+03	7.863408843787094149e+00	-4.898218428184367493e-03	-1.875577223311131747e-01
8.321416684085577799e+03	7.879377280999264599e+00	-4.879293188396862171e-03	-1.875559059371650905e-01
8.321420151251524658e+03	7.895183031546014085e+00	-4.860668311810293143e-03	-1.875540899523716332e-01
8.321423618417471516e+03	7.910825411164291054e+00	-4.842340485638027721e-03	-1.875522743766151190e-01
8.321427085583418375e+03	7.926303741891103094e+00	-4.824306462944467043e-03	-1.875504592097783640e-01
8.321430552749365233e+03	7.941617352109428651e+00	-4.806563061466913832e-03	-1.875486444517434348e-01
8.321434019915312092e+03	7.956765576593850753e+00	-4.789107162466221812e-03	-1.875468301023931472e-01
8.321437487081258951e+03	7.971747756556035291e+00	-4.771935709605478262e-03	-1.875450161616100953e-01
8.321440954247205809e+03	7.986563239689921545e+00	-4.755045707856055300e-03	-1.875432026292770116e-01
8.321444421413150849e+03	8.001211380216693314e+00	-4.738434222430387179e-03	-1.875413895052764068e-01
8.321447888579097707e+03	8.015691538929495152e+00	-4.722098377740813549e-03	-1.875395767894909027e-01
8.321451355745044566e+03	8.030003083237925665e+00	-4.706035356383854625e-03	-1.875377644818034539e-01
8.321454822910991425e+03	8.044145387212189746e+00	-4.690242398149381368e-03	-1.875359525820967932e-01
8.321458290076938283e+03	8.058117831627052752e+00	-4.674716799054021502e-03	-1.875341410902535977e-01
8.321461757242885142e+03	8.071919804005448285e+00	-4.659455910398274843e-03	-1.875323300061568499e-01
8.321465224408832000e+03	8.085550698661885249e+00	-4.644457137846730831e-03	-1.875305193296893103e-01
8.321468691574778859e+03	8.099009916745490756e+00	-4.629717940530938061e-03	-1.875287090607340446e-01
8.321472158740725718e+03	8.112296866282763474e+00	-4.615235830174346451e-03	-1.875268991991739242e-01
8.321475625906672576e+03	8.125410962220032118e+00	-4.601008370238824155e-03	-1.875250897448919596e-01
8.321479093072619435e+03	8.138351626465572863e+00	-4.587033175092290402e-03	-1.875232806977710498e-01
8.321482560238566293e+03	8.151118287931423012e+00	-4.573307909196944708e-03	-1.875214720576943994e-01
8.321486027404511333e+03	8.163710382574842939e+00	-4.559830286317646635e-03	-1.875196638245450187e-01
8.321489494570458191e+03	8.176127353439460066e+00	-4.546598068750015015e-03	-1.875178559982060289e-01
8.321492961736405050e+03	8.188368650696036255e+00	-4.533609066567793021e-03	-1.875160485785607178e-01
8.321496428902351909e+03	8.200433731682890581e+00	-4.520861136889056664e-03	-1.875142415654919292e-01
8.321499896068298767e+03	8.212322060945959734e+00	-4.508352183160876415e-03	-1.875124349588833117e-01
8.321503363234245626e+03	8.224033110278499592e+00	-4.496080154461971380e-03	-1.875106287586180143e-01
8.321506830400192484e+03	8.235566358760394223e+00	-4.484043044823067189e-03	-1.875088229645790749e-01
8.321510297566139343e+03	8.246921292797061653e+00	-4.472238892564514394e-03	-1.875070175766501146e-01
8.321513764732086202e+03	8.258097406158018572e+00	-4.460665779650782245e-03	-1.875052125947142267e-01
8.321517231898033060e+03	8.269094200014992069e+00	-4.449321831061562454e-03	-1.875034080186551710e-01
8.321520699063979919e+03	8.279911182979649453e+00	-4.438205214179052720e-03	-1.875016038483562075e-01
8.321524166229926777e+03	8.290547871140919511e+00	-4.427314138191134653e-03	-1.874998000837006795e-01
8.321527633395871817e+03	8.301003788101869674e+00	-4.416646853510102638e-03	-1.874979967245723744e-01
8.321531100561818675e+03	8.311278465016187056e+00	-4.406201651206629634e-03	-1.874961937708544690e-01
8.321534567727765534e+03	8.321371440624185212e+00	-4.395976862458712310e-03	-1.874943912224306952e-01
8.321538034893712393e+03	8.331282261288391666e+00	-4.385970858015195671e-03	-1.874925890791847849e-01
8.321541502059659251e+03	8.341010481028689583e+00	-4.376182047673730577e-03	-1.874907873410004977e-01
8.321544969225606110e+03	8.350555661557004683e+00	-4.366608879772744360e-03	-1.874889860077610382e-01
8.321548436391552968e+03	8.359917372311519657e+00	-4.357249840697245864e-03	-1.874871850793504435e-01
8.321551903557499827e+03	8.369095190490403624e+00	-4.348103454398219436e-03	-1.874853845556525012e-01
8.321555370723446686e+03	8.378088701085108170e+00	-4.339168281925273943e-03	-1.874835844365506932e-01
8.321558837889393544e+03	8.386897496913155337e+00	-4.330442920972335172e-03	-1.874817847219292510e-01
8.321562305055340403e+03	8.395521178650435346e+00	-4.321926005436200341e-03	-1.874799854116717401e-01
8.321565772221287261e+03	8.403959354863033582e+00	-4.313616204987637259e-03	-1.874781865056620034e-01
8.321569239387232301e+03	8.412211642038508685e+00	-4.305512224654869415e-03	-1.874763880037842168e-01
8.321572706553179160e+03	8.420277664616703461e+00	-4.297612804419214533e-03	-1.874745899059220844e-01
8.321576173719126018e+03	8.428157055020038868e+00	-4.289916718822639821e-03	-1.874727922119597823e-01
8.321579640885072877e+03	8.435849453683273325e+00	-4.282422776587064758e-03	-1.874709949217812088e-01
8.321583108051019735e+03	8.443354509082736215e+00	-4.275129820245215408e-03	-1.874691980352705123e-01
8.321586575216966594e+03	8.450671877765079998e+00	-4.268036725782801272e-03	-1.874674015523117299e-01
8.321590042382913452e+03	8.457801224375405269e+00	-4.261142402291912337e-03	-1.874656054727889820e-01
8.321593509548860311e+03	8.464742221684913304e+00	-4.254445791635374369e-03	-1.874638097965863337e-01
8.321596976714807170e+03	8.471494550617993724e+00	-4.247945868121934081e-03	-1.874620145235881552e-01
8.321600443880754028e+03	8.478057900278761494e+00	-4.241641638192092043e-03	-1.874602196536785947e-01
8.321603911046700887e+03	8.484431967977021927e+00	-4.235532140114480100e-03	-1.874584251867419948e-01
8.321607378212647745e+03	8.490616459253677917e+00	-4.229616443692551728e-03	-1.874566311226626147e-01
8.321610845378592785e+03	8.496611087905561632e+00	-4.223893649981483832e-03	-1.874548374613246582e-01
8.321614312544539644e+03	8.502415576009722642e+00	-4.218362891015123468e-03	-1.874530442026126620e-01
8.321617779710486502e+03	8.508029653947078330e+00	-4.213023329542908355e-03	-1.874512513464108854e-01
8.321621246876433361e+03	8.513453060425554497e+00	-4.207874158776511372e-03	-1.874494588926038652e-01
8.321624714042380219e+03	8.518685542502563379e+00	-4.202914602146196055e-03	-1.874476668410760272e-01
8.321628181208327078e+03	8.523726855606923891e+00	-4.198143913066738203e-03	-1.874458751917119637e-01
8.321631648374273936e+03	8.528576763560199225e+00	-4.193561374712697666e-03	-1.874440839443961837e-01
8.321635115540220795e+03	8.533235038597432265e+00	-4.189166299803066297e-03	-1.874422930990131131e-01
8.321638582706167654e+03	8.537701461387202428e+00	-4.184958030395148978e-03	-1.874405026554475107e-01
8.321642049872114512e+03	8.541975821051149609e+00	-4.180935937687513780e-03	-1.874387126135839687e-01
8.321645517038061371e+03	8.546057915182881715e+00	-4.177099421831949669e-03	-1.874369229733071351e-01
8.321648984204008229e+03	8.549947549866198315e+00	-4.173447911754393606e-03	-1.874351337345017965e-01
8.321652451369953269e+03	8.553644539692760063e+00	-4.169980864984638817e-03	-1.874333448970526006e-01
8.321655918535900128e+03	8.557148707779099084e+00	-4.166697767494824227e-03	-1.874315564608445284e-01
8.321659385701846986e+03	8.560459885782998768e+00	-4.163598133546595782e-03	-1.874297684257620056e-01
8.321662852867793845e+03	8.563577913919221629e+00	-4.160681505546858124e-03	-1.874279807916901797e-01
8.321666320033740703e+03	8.566502640974649196e+00	-4.157947453912061095e-03	-1.874261935585140315e-01
8.321669787199687562e+03	8.569233924322723794e+00	-4.155395576940935226e-03	-1.874244067261182090e-01
8.321673254365634421e+03	8.571771629937295245e+00	-4.153025500695626746e-03	-1.874226202943877484e-01
8.321676721531581279e+03	8.574115632405774790e+00	-4.150836878891197429e-03	-1.874208342632076030e-01
8.321680188697528138e+03	8.576265814941699261e+00	-4.148829392793368723e-03	-1.874190486324629201e-01
8.321683655863474996e+03	8.578222069396559846e+00	-4.147002751124556109e-03	-1.874172634020386530e-01
8.321687123029421855e+03	8.579984296271030431e+00	-4.145356689978063613e-03	-1.874154785718199767e-01
8.321690590195368713e+03	8.581552404725556471e+00	-4.143890972740432374e-03	-1.874136941416918167e-01
8.321694057361313753e+03	8.582926312590235085e+00	-4.142605390021892112e-03	-1.874119101115394870e-01
8.321697524527260612e+03	8.584105946374034346e+00	-4.141499759594934570e-03	-1.874101264812482182e-01
8.321700991693207470e+03	8.585091241273376639e+00	-4.140573926340901378e-03	-1.874083432507030744e-01
8.321704458859154329e+03	8.585882141180023908e+00	-4.139827762204625373e-03	-1.874065604197893975e-01
8.321707926025101187e+03	8.586478598688326969e+00	-4.139261166157025620e-03	-1.874047779883925291e-01
8.321711393191048046e+03	8.586880575101782043e+00	-4.138874064165733342e-03	-1.874029959563976999e-01
8.321714860356994905e+03	8.587088040438930037e+00	-4.138666409173646400e-03	-1.874012143236904460e-01
8.321718327522941763e+03	8.587100973438532847e+00	-4.138638181085525954e-03	-1.873994330901558591e-01
8.321721794688888622e+03	8.586919361564136821e+00	-4.138789386762449680e-03	-1.873976522556795588e-01
8.321725261854835480e+03	8.586543201007911463e+00	-4.139120060024276820e-03	-1.873958718201470253e-01
8.321728729020782339e+03	8.585972496693825562e+00	-4.139630261660053046e-03	-1.873940917834436837e-01
8.321732196186729198e+03	8.585207262280173168e+00	-4.140320079446343018e-03	-1.873923121454550977e-01
8.321735663352674237e+03	8.584247520161381928e+00	-4.141189628173560025e-03	-1.873905329060669700e-01
8.321739130518621096e+03	8.583093301469142844e+00	-4.142239049680269264e-03	-1.873887540651645311e-01
8.321742597684567954e+03	8.581744646072873905e+00	-4.143468512895481272e-03	-1.873869756226336780e-01
8.321746064850514813e+03	8.580201602579483833e+00	-4.144878213888959773e-03	-1.873851975783601131e-01
8.321749532016461671e+03	8.578464228332457253e+00	-4.146468375929589917e-03	-1.873834199322294003e-01
8.321752999182408530e+03	8.576532589410277296e+00	-4.148239249551768752e-03	-1.873816426841273530e-01
8.321756466348355389e+03	8.574406760624135870e+00	-4.150191112629931546e-03	-1.873798658339397294e-01
8.321759933514302247e+03	8.572086825514940500e+00	-4.152324270461238247e-03	-1.873780893815523152e-01
8.321763400680249106e+03	8.569572876349749180e+00	-4.154639055856331614e-03	-1.873763133268508962e-01
8.321766867846195964e+03	8.566865014117386323e+00	-4.157135829238425492e-03	-1.873745376697214526e-01
8.321770335012142823e+03	8.563963348523417451e+00	-4.159814978750630415e-03	-1.873727624100497979e-01
8.321773802178089682e+03	8.560867997984496824e+00	-4.162676920371558183e-03	-1.873709875477218845e-01
8.321777269344034721e+03	8.557579089621983215e+00	-4.165722098039338107e-03	-1.873692130826237201e-01
8.321780736509981580e+03	8.554096759254878890e+00	-4.168950983784048409e-03	-1.873674390146413404e-01
8.321784203675928438e+03	8.550421151392081143e+00	-4.172364077868682443e-03	-1.873656653436606701e-01
8.321787670841875297e+03	8.546552419224006769e+00	-4.175961908938621153e-03	-1.873638920695677723e-01
8.321791138007822155e+03	8.542490724613456266e+00	-4.179745034179817298e-03	-1.873621191922489049e-01
8.321794605173769014e+03	8.538236238085875840e+00	-4.183714039485632481e-03	-1.873603467115901589e-01
8.321798072339715873e+03	8.533789138818901776e+00	-4.187869539632529947e-03	-1.873585746274776531e-01
8.321801539505662731e+03	8.529149614631272414e+00	-4.192212178464577166e-03	-1.873568029397976176e-01
8.321805006671609590e+03	8.524317861971010046e+00	-4.196742629087021892e-03	-1.873550316484361988e-01
8.321808473837556448e+03	8.519294085902975766e+00	-4.201461594068850620e-03	-1.873532607532798211e-01
8.321811941003503307e+03	8.514078500095754620e+00	-4.206369805654569700e-03	-1.873514902542147420e-01
8.321815408169450166e+03	8.508671326807846214e+00	-4.211468025985241198e-03	-1.873497201511273857e-01
8.321818875335395205e+03	8.503072796873242467e+00	-4.216757047328902747e-03	-1.873479504439038712e-01
8.321822342501342064e+03	8.497283149686285952e+00	-4.222237692320467660e-03	-1.873461811324308723e-01
8.321825809667288922e+03	8.491302633185933146e+00	-4.227910814211272711e-03	-1.873444122165949244e-01
8.321829276833235781e+03	8.485131503839296485e+00	-4.233777297128349902e-03	-1.873426436962821462e-01
8.321832743999182640e+03	8.478770026624562917e+00	-4.239838056343567946e-03	-1.873408755713792118e-01
8.321836211165129498e+03	8.472218475013269412e+00	-4.246094038552784833e-03	-1.873391078417727673e-01
8.321839678331076357e+03	8.465477130951935436e+00	-4.252546222165102564e-03	-1.873373405073492648e-01
8.321843145497023215e+03	8.458546284843032836e+00	-4.259195617602476447e-03	-1.873355735679953227e-01
8.321846612662970074e+03	8.451426235525316244e+00	-4.266043267609696300e-03	-1.873338070235977537e-01
8.321850079828916932e+03	8.444117290253544184e+00	-4.273090247574993714e-03	-1.873320408740431486e-01
8.321853546994863791e+03	8.436619764677523392e+00	-4.280337665861406321e-03	-1.873302751192179594e-01
8.321857014160810650e+03	8.428933982820533188e+00	-4.287786664149068235e-03	-1.873285097590093595e-01
8.321860481326755689e+03	8.421060277057177856e+00	-4.295438417788561072e-03	-1.873267447933038565e-01
8.321863948492702548e+03	8.412998988090512498e+00	-4.303294136165603141e-03	-1.873249802219882354e-01
8.321867415658649406e+03	8.404750464928662623e+00	-4.311355063077129679e-03	-1.873232160449496142e-01
8.321870882824596265e+03	8.396315064860742083e+00	-4.319622477119087686e-03	-1.873214522620745837e-01
8.321874349990543124e+03	8.387693153432200788e+00	-4.328097692086059836e-03	-1.873196888732503174e-01
