# time(us)	tip(nm)	Fts(nN)	Xb(nm)
8.321201719796881662e+03	2.750354055122977037e+00	-3.238470238343634650e-02	-2.583398723203378378e-01
8.321205186962828520e+03	2.754661043129475573e+00	-3.229782006337895972e-02	-2.583374113590925503e-01
8.321208654128775379e+03	2.758890481532701333e+00	-3.221283952209156448e-02	-2.583349509519844989e-01
8.321212121294722238e+03	2.763042137294249301e+00	-3.212974520147710705e-02	-2.583324910988544776e-01
8.321215588460669096e+03	2.767115781383617357e+00	-3.204852193147569167e-02	-2.583300317995433359e-01
8.321219055626615955e+03	2.771111188808125458e+00	-3.196915492441895074e-02	-2.583275730538918680e-01
8.321222522792562813e+03	2.775028138642309905e+00	-3.189162976954753453e-02	-2.583251148617412007e-01
8.321225989958509672e+03	2.778866414056879730e+00	-3.181593242768698121e-02	-2.583226572229324058e-01
8.321229457124456530e+03	2.782625802347167721e+00	-3.174204922607936491e-02	-2.583202001373062218e-01
8.321232924290403389e+03	2.786306094961108926e+00	-3.166996685336663508e-02	-2.583177436047040532e-01
8.321236391456348429e+03	2.789907087526690699e+00	-3.159967235472405100e-02	-2.583152876249666940e-01
8.321239858622295287e+03	2.793428579878918683e+00	-3.153115312713877100e-02	-2.583128321979357711e-01
8.321243325788242146e+03	2.796870376086271648e+00	-3.146439691483189638e-02	-2.583103773234524114e-01
8.321246792954189004e+03	2.800232284476606104e+00	-3.139939180482109043e-02	-2.583079230013577421e-01
8.321250260120135863e+03	2.803514117662561755e+00	-3.133612622262034464e-02	-2.583054692314932788e-01
8.321253727286082722e+03	2.806715692566421616e+00	-3.127458892807496310e-02	-2.583030160137003151e-01
8.321257194452029580e+03	2.809836830444436107e+00	-3.121476901132863926e-02	-2.583005633478202001e-01
8.321260661617976439e+03	2.812877356910597371e+00	-3.115665588892051890e-02	-2.582981112336944496e-01
8.321264128783923297e+03	2.815837101959855371e+00	-3.110023930000998388e-02	-2.582956596711646902e-01
8.321267595949870156e+03	2.818715899990785534e+00	-3.104550930272641576e-02	-2.582932086600724375e-01
8.321271063115817014e+03	2.821513589827692403e+00	-3.099245627064189240e-02	-2.582907582002594293e-01
8.321274530281763873e+03	2.824230014742114658e+00	-3.094107088936540531e-02	-2.582883082915672368e-01
8.321277997447708913e+03	2.826865022473806555e+00	-3.089134415325491684e-02	-2.582858589338374311e-01
8.321281464613655771e+03	2.829418465251093195e+00	-3.084326736224712179e-02	-2.582834101269119720e-01
8.321284931779602630e+03	2.831890199810650710e+00	-3.079683211880192284e-02	-2.582809618706326527e-01
8.321288398945549488e+03	2.834280087416708671e+00	-3.075203032496000299e-02	-2.582785141648412108e-01
8.321291866111496347e+03	2.836587993879629899e+00	-3.070885417951202401e-02	-2.582760670093796618e-01
8.321295333277443206e+03	2.838813789573924051e+00	-3.066729617527717833e-02	-2.582736204040898542e-01
8.321298800443390064e+03	2.840957349455610181e+00	-3.062734909649049778e-02	-2.582711743488139144e-01
8.321302267609336923e+03	2.843018553079010857e+00	-3.058900601629620936e-02	-2.582687288433937467e-01
8.321305734775283781e+03	2.844997284612916122e+00	-3.055226029434620488e-02	-2.582662838876714773e-01
8.321309201941230640e+03	2.846893432856112405e+00	-3.051710557450277445e-02	-2.582638394814893434e-01
8.321312669107177499e+03	2.848706891252317241e+00	-3.048353578264322364e-02	-2.582613956246894160e-01
8.321316136273124357e+03	2.850437557904462960e+00	-3.045154512456564252e-02	-2.582589523171140433e-01
8.321319603439069397e+03	2.852085335588346648e+00	-3.042112808399503529e-02	-2.582565095586053516e-01
8.321323070605016255e+03	2.853650131765670839e+00	-3.039227942068759361e-02	-2.582540673490057448e-01
8.321326537770963114e+03	2.855131858596434036e+00	-3.036499416863266618e-02	-2.582516256881575711e-01
8.321330004936909972e+03	2.856530432950669329e+00	-3.033926763435173743e-02	-2.582491845759033455e-01
8.321333472102856831e+03	2.857845776419557726e+00	-3.031509539529250036e-02	-2.582467440120855273e-01
8.321336939268803690e+03	2.859077815325883343e+00	-3.029247329831789848e-02	-2.582443039965465204e-01
8.321340406434750548e+03	2.860226480733843335e+00	-3.027139745828893655e-02	-2.582418645291287840e-01
8.321343873600697407e+03	2.861291708458202798e+00	-3.025186425674041696e-02	-2.582394256096752772e-01
8.321347340766644265e+03	2.862273439072795078e+00	-3.023387034064904666e-02	-2.582369872380282927e-01
8.321350807932591124e+03	2.863171617918372380e+00	-3.021741262129289465e-02	-2.582345494140307895e-01
8.321354275098537983e+03	2.863986195109795574e+00	-3.020248827320178714e-02	-2.582321121375252826e-01
8.321357742264484841e+03	2.864717125542548537e+00	-3.018909473319819625e-02	-2.582296754083547308e-01
8.321361209430429881e+03	2.865364368898603686e+00	-3.017722969952773074e-02	-2.582272392263618710e-01
8.321364676596376739e+03	2.865927889651641802e+00	-3.016689113107852427e-02	-2.582248035913898843e-01
8.321368143762323598e+03	2.866407657071576409e+00	-3.015807724668985099e-02	-2.582223685032811744e-01
8.321371610928270456e+03	2.866803645228425790e+00	-3.015078652454907665e-02	-2.582199339618790890e-01
8.321375078094217315e+03	2.867115832995521529e+00	-3.014501770167642147e-02	-2.582174999670266979e-01
8.321378545260164174e+03	2.867344204052034939e+00	-3.014076977349798916e-02	-2.582150665185668492e-01
8.321382012426111032e+03	2.867488746884849782e+00	-3.013804199350579235e-02	-2.582126336163428348e-01
8.321385479592057891e+03	2.867549454789767971e+00	-3.013683387300526012e-02	-2.582102012601977803e-01
8.321388946758004749e+03	2.867526325872039816e+00	-3.013714518095011313e-02	-2.582077694499747000e-01
8.321392413923951608e+03	2.867419363046215697e+00	-3.013897594386417966e-02	-2.582053381855172192e-01
8.321395881089898467e+03	2.867228574035352917e+00	-3.014232644585030166e-02	-2.582029074666683521e-01
8.321399348255845325e+03	2.866953971369525345e+00	-3.014719722868644189e-02	-2.582004772932715575e-01
8.321402815421790365e+03	2.866595572383697110e+00	-3.015358909200852033e-02	-2.581980476651702383e-01
8.321406282587737223e+03	2.866153399214892872e+00	-3.016150309358096859e-02	-2.581956185822079086e-01
8.321409749753684082e+03	2.865627478798725036e+00	-3.017094054965457905e-02	-2.581931900442279160e-01
8.321413216919630941e+03	2.865017842865251740e+00	-3.018190303541144065e-02	-2.581907620510738299e-01
8.321416684085577799e+03	2.864324527934170472e+00	-3.019439238549830040e-02	-2.581883346025892756e-01
8.321420151251524658e+03	2.863547575309333126e+00	-3.020841069464793791e-02	-2.581859076986178780e-01
8.321423618417471516e+03	2.862687031072627786e+00	-3.022396031838869151e-02	-2.581834813390033734e-01
8.321427085583418375e+03	2.861742946077178829e+00	-3.024104387384324646e-02	-2.581810555235894977e-01
8.321430552749365233e+03	2.860715375939889782e+00	-3.025966424061678553e-02	-2.581786302522199317e-01
8.321434019915312092e+03	2.859604381033334253e+00	-3.027982456177489082e-02	-2.581762055247383558e-01
8.321437487081258951e+03	2.858410026476993604e+00	-3.030152824491198771e-02	-2.581737813409889504e-01
8.321440954247205809e+03	2.857132382127844039e+00	-3.032477896331057035e-02	-2.581713577008153404e-01
8.321444421413150849e+03	2.855771522570283771e+00	-3.034958065719262424e-02	-2.581689346040618172e-01
8.321447888579097707e+03	2.854327527105437134e+00	-3.037593753506285382e-02	-2.581665120505720057e-01
8.321451355745044566e+03	2.852800479739787676e+00	-3.040385407514567540e-02	-2.581640900401902528e-01
8.321454822910991425e+03	2.851190469173179753e+00	-3.043333502691607934e-02	-2.581616685727604610e-01
8.321458290076938283e+03	2.849497588786184643e+00	-3.046438541272544417e-02	-2.581592476481267551e-01
8.321461757242885142e+03	2.847721936626846695e+00	-3.049701052952281249e-02	-2.581568272661336483e-01
8.321465224408832000e+03	2.845863615396769575e+00	-3.053121595067364441e-02	-2.581544074266249322e-01
8.321468691574778859e+03	2.843922732436599876e+00	-3.056700752787613537e-02	-2.581519881294451757e-01
8.321472158740725718e+03	2.841899399710877905e+00	-3.060439139317641666e-02	-2.581495693744386699e-01
8.321475625906672576e+03	2.839793733792262298e+00	-3.064337396108455028e-02	-2.581471511614496506e-01
8.321479093072619435e+03	2.837605855845159120e+00	-3.068396193079130085e-02	-2.581447334903226309e-01
8.321482560238566293e+03	2.835335891608724790e+00	-3.072616228848786685e-02	-2.581423163609020133e-01
8.321486027404511333e+03	2.832983971379260169e+00	-3.076998230979006294e-02	-2.581398997730325884e-01
8.321489494570458191e+03	2.830550229992016220e+00	-3.081542956226748092e-02	-2.581374837265584810e-01
8.321492961736405050e+03	2.828034806802392165e+00	-3.086251190808006473e-02	-2.581350682213246484e-01
8.321496428902351909e+03	2.825437845666547876e+00	-3.091123750672306394e-02	-2.581326532571754928e-01
8.321499896068298767e+03	2.822759494921440737e+00	-3.096161481788198624e-02	-2.581302388339560272e-01
8.321503363234245626e+03	2.819999907364251435e+00	-3.101365260439994248e-02	-2.581278249515105427e-01
8.321506830400192484e+03	2.817159240231255080e+00	-3.106735993535826926e-02	-2.581254116096843854e-01
8.321510297566139343e+03	2.814237655176125674e+00	-3.112274618927278122e-02	-2.581229988083217353e-01
8.321513764732086202e+03	2.811235318247664150e+00	-3.117982105740724902e-02	-2.581205865472679939e-01
8.321517231898033060e+03	2.808152399866964188e+00	-3.123859454720673279e-02	-2.581181748263680076e-01
8.321520699063979919e+03	2.804989074804036253e+00	-3.129907698585192299e-02	-2.581157636454665116e-01
8.321524166229926777e+03	2.801745522153887169e+00	-3.136127902393720523e-02	-2.581133530044087965e-01
8.321527633395871817e+03	2.798421925312049918e+00	-3.142521163927460698e-02	-2.581109429030397084e-01
8.321531100561818675e+03	2.795018471949583638e+00	-3.149088614082600629e-02	-2.581085333412044824e-01
8.321534567727765534e+03	2.791535353987546486e+00	-3.155831417276571543e-02	-2.581061243187482979e-01
8.321538034893712393e+03	2.787972767570943144e+00	-3.162750771867624267e-02	-2.581037158355162786e-01
8.321541502059659251e+03	2.784330913042169620e+00	-3.169847910587961226e-02	-2.581013078913536596e-01
8.321544969225606110e+03	2.780609994913923355e+00	-3.177124100990728200e-02	-2.580989004861058977e-01
8.321548436391552968e+03	2.776810221841656379e+00	-3.184580645911051777e-02	-2.580964936196181170e-01
8.321551903557499827e+03	2.772931806595501314e+00	-3.192218883941518037e-02	-2.580940872917358853e-01
8.321555370723446686e+03	2.768974966031727991e+00	-3.200040189922328387e-02	-2.580916815023044930e-01
8.321558837889393544e+03	2.764939921063701345e+00	-3.208045975446473935e-02	-2.580892762511695637e-01
8.321562305055340403e+03	2.760826896632400107e+00	-3.216237689380179593e-02	-2.580868715381764433e-01
8.321565772221287261e+03	2.756636121676455886e+00	-3.224616818399014817e-02	-2.580844673631709774e-01
8.321569239387232301e+03	2.752367829101723729e+00	-3.233184887540017927e-02	-2.580820637259984562e-01
8.321572706553179160e+03	2.748022255750424581e+00	-3.241943460770118496e-02	-2.580796606265047810e-01
8.321576173719126018e+03	2.743599642369855207e+00	-3.250894141571247786e-02	-2.580772580645355196e-01
8.321579640885072877e+03	2.739100233580638033e+00	-3.260038573542574369e-02	-2.580748560399366842e-01
8.321583108051019735e+03	2.734524277844579299e+00	-3.269378441020145964e-02	-2.580724545525537317e-01
8.321586575216966594e+03	2.729872027432085346e+00	-3.278915469714454439e-02	-2.580700536022325076e-01
8.321590042382913452e+03	2.725143738389180559e+00	-3.288651427366247326e-02	-2.580676531888191350e-01
8.321593509548860311e+03	2.720339670504142493e+00	-3.298588124421052842e-02	-2.580652533121596814e-01
8.321596976714807170e+03	2.715460087273743106e+00	-3.308727414722830579e-02	-2.580628539720997705e-01
8.321600443880754028e+03	2.710505255869085861e+00	-3.319071196227298126e-02	-2.580604551684855807e-01
8.321603911046700887e+03	2.705475447101097330e+00	-3.329621411735291664e-02	-2.580580569011632353e-01
8.321607378212647745e+03	2.700370935385646209e+00	-3.340380049646715643e-02	-2.580556591699788571e-01
8.321610845378592785e+03	2.695191998708302172e+00	-3.351349144735568664e-02	-2.580532619747784029e-01
8.321614312544539644e+03	2.689938918588758998e+00	-3.362530778946584697e-02	-2.580508653154083842e-01
8.321617779710486502e+03	2.684611980044921076e+00	-3.373927082213976081e-02	-2.580484691917149243e-01
8.321621246876433361e+03	2.679211471556655955e+00	-3.385540233302920116e-02	-2.580460736035443126e-01
8.321624714042380219e+03	2.673737685029240474e+00	-3.397372460674275702e-02	-2.580436785507428388e-01
8.321628181208327078e+03	2.668190915756480042e+00	-3.409426043373202375e-02	-2.580412840331569591e-01
8.321631648374273936e+03	2.662571462383548582e+00	-3.421703311942250053e-02	-2.580388900506331851e-01
8.321635115540220795e+03	2.656879626869529165e+00	-3.434206649359537733e-02	-2.580364966030179730e-01
8.321638582706167654e+03	2.651115714449674421e+00	-3.446938492002744187e-02	-2.580341036901579455e-01
8.321642049872114512e+03	2.645280033597400937e+00	-3.459901330639518491e-02	-2.580317113118993921e-01
8.321645517038061371e+03	2.639372895986014989e+00	-3.473097711445048003e-02	-2.580293194680891578e-01
8.321648984204008229e+03	2.633394616450198455e+00	-3.486530237047493624e-02	-2.580269281585739205e-01
8.321652451369953269e+03	2.627345512947237616e+00	-3.500201567602051478e-02	-2.580245373832002476e-01
8.321655918535900128e+03	2.621225906518033444e+00	-3.514114421894397322e-02	-2.580221471418149837e-01
8.321659385701846986e+03	2.615036121247882761e+00	-3.528271578474307529e-02	-2.580197574342649736e-01
8.321662852867793845e+03	2.608776484227055104e+00	-3.542675876820297609e-02	-2.580173682603970065e-01
8.321666320033740703e+03	2.602447325511151988e+00	-3.557330218536131766e-02	-2.580149796200579826e-01
8.321669787199687562e+03	2.596048978081287206e+00	-3.572237568580059752e-02	-2.580125915130950243e-01
8.321673254365634421e+03	2.589581777804084162e+00	-3.587400956527696944e-02	-2.580102039393547542e-01
8.321676721531581279e+03	2.583046063391495561e+00	-3.602823477869501745e-02	-2.580078168986845721e-01
8.321680188697528138e+03	2.576442176360455694e+00	-3.618508295343831477e-02	-2.580054303909312119e-01
8.321683655863474996e+03	2.569770460992393701e+00	-3.634458640306523214e-02	-2.580030444159422398e-01
8.321687123029421855e+03	2.563031264292588318e+00	-3.650677814138120203e-02	-2.580006589735643341e-01
8.321690590195368713e+03	2.556224935949397814e+00	-3.667169189689750697e-02	-2.579982740636451721e-01
8.321694057361313753e+03	2.549351828293378475e+00	-3.683936212768772200e-02	-2.579958896860316542e-01
8.321697524527260612e+03	2.542412296256268078e+00	-3.700982403665376008e-02	-2.579935058405712356e-01
8.321700991693207470e+03	2.535406697329885883e+00	-3.718311358721303195e-02	-2.579911225271111497e-01
8.321704458859154329e+03	2.528335391524928699e+00	-3.735926751941887058e-02	-2.579887397454990183e-01
8.321707926025101187e+03	2.521198741329690574e+00	-3.753832336652727919e-02	-2.579863574955822414e-01
8.321711393191048046e+03	2.513997111668703877e+00	-3.772031947202286739e-02	-2.579839757772080522e-01
8.321714860356994905e+03	2.506730869861327538e+00	-3.790529500711747185e-02	-2.579815945902242391e-01
8.321718327522941763e+03	2.499400385580273998e+00	-3.809328998873581090e-02	-2.579792139344783686e-01
8.321721794688888622e+03	2.492006030810105965e+00	-3.828434529800208569e-02	-2.579768338098178959e-01
8.321725261854835480e+03	2.484548179805682544e+00	-3.847850269924378563e-02	-2.579744542160905540e-01
8.321728729020782339e+03	2.477027209050604473e+00	-3.867580485952652747e-02	-2.579720751531440759e-01
8.321732196186729198e+03	2.469443497215629613e+00	-3.887629536873753872e-02	-2.579696966208263609e-01
8.321735663352674237e+03	2.461797425117096871e+00	-3.908001876023382143e-02	-2.579673186189850309e-01
8.321739130518621096e+03	2.454089375675345686e+00	-3.928702053207203809e-02	-2.579649411474678744e-01
8.321742597684567954e+03	2.446319733873181690e+00	-3.949734716883814695e-02	-2.579625642061230129e-01
8.321746064850514813e+03	2.438488886714333059e+00	-3.971104616409563276e-02	-2.579601877947982347e-01
8.321749532016461671e+03	2.430597223181965028e+00	-3.992816604347120685e-02	-2.579578119133414948e-01
8.321752999182408530e+03	2.422645134197241923e+00	-4.014875638839725258e-02	-2.579554365616010259e-01
8.321756466348355389e+03	2.414633012577941162e+00	-4.037286786053248533e-02	-2.579530617394248382e-01
8.321759933514302247e+03	2.406561252997129863e+00	-4.060055222688185167e-02	-2.579506874466608313e-01
8.321763400680249106e+03	2.398430251941933378e+00	-4.083186238563673437e-02	-2.579483136831572931e-01
8.321766867846195964e+03	2.390240407672370004e+00	-4.106685239275986721e-02	-2.579459404487625118e-01
8.321770335012142823e+03	2.381992120180296713e+00	-4.130557748933727513e-02	-2.579435677433246643e-01
8.321773802178089682e+03	2.373685791148448132e+00	-4.154809412972271243e-02	-2.579411955666920941e-01
8.321777269344034721e+03	2.365321823909605659e+00	-4.179446001049891279e-02	-2.579388239187132559e-01
8.321780736509981580e+03	2.356900623405870920e+00	-4.204473410028342767e-02	-2.579364527992362710e-01
8.321784203675928438e+03	2.348422596148086239e+00	-4.229897667040501824e-02	-2.579340822081098161e-01
8.321787670841875297e+03	2.339888150175396753e+00	-4.255724932647950848e-02	-2.579317121451821238e-01
8.321791138007822155e+03	2.331297695014953320e+00	-4.281961504091450627e-02	-2.579293426103019260e-01
8.321794605173769014e+03	2.322651641641793052e+00	-4.308613818637344745e-02	-2.579269736033177884e-01
8.321798072339715873e+03	2.313950402438871290e+00	-4.335688457023007675e-02	-2.579246051240783322e-01
8.321801539505662731e+03	2.305194391157283640e+00	-4.363192147004676946e-02	-2.579222371724321228e-01
8.321805006671609590e+03	2.296384022876680309e+00	-4.391131767011004911e-02	-2.579198697482278924e-01
8.321808473837556448e+03	2.287519713965863843e+00	-4.419514349905910577e-02	-2.579175028513144285e-01
8.321811941003503307e+03	2.278601882043600924e+00	-4.448347086864379990e-02	-2.579151364815404635e-01
8.321815408169450166e+03	2.269630945939647315e+00	-4.477637331364954509e-02	-2.579127706387550067e-01
8.321818875335395205e+03	2.260607325655987321e+00	-4.507392603302975975e-02	-2.579104053228066240e-01
8.321822342501342064e+03	2.251531442328318811e+00	-4.537620593228532118e-02	-2.579080405335446025e-01
8.321825809667288922e+03	2.242403718187754524e+00	-4.568329166713514661e-02	-2.579056762708176742e-01
8.321829276833235781e+03	2.233224576522797822e+00	-4.599526368852040886e-02	-2.579033125344749044e-01
8.321832743999182640e+03	2.223994441641553355e+00	-4.631220428898951552e-02	-2.579009493243654139e-01
8.321836211165129498e+03	2.214713738834217516e+00	-4.663419765051102922e-02	-2.578985866403384342e-01
8.321839678331076357e+03	2.205382894335818911e+00	-4.696132989376426009e-02	-2.578962244822428085e-01
8.321843145497023215e+03	2.196002335289258145e+00	-4.729368912895858673e-02	-2.578938628499279906e-01
8.321846612662970074e+03	2.186572489708625611e+00	-4.763136550823555970e-02	-2.578915017432430457e-01
8.321850079828916932e+03	2.177093786442821699e+00	-4.797445127970846601e-02	-2.578891411620375385e-01
8.321853546994863791e+03	2.167566655139462561e+00	-4.832304084319871684e-02	-2.578867811061605342e-01
8.321857014160810650e+03	2.157991526209110056e+00	-4.867723080772770605e-02	-2.578844215754614311e-01
8.321860481326755689e+03	2.148368830789814332e+00	-4.903712005082728337e-02	-2.578820625697898494e-01
8.321863948492702548e+03	2.138699000711981490e+00	-4.940280977973374177e-02	-2.578797040889950765e-01
8.321867415658649406e+03	2.128982468463568978e+00	-4.977440359453336877e-02	-2.578773461329267325e-01
8.321870882824596265e+03	2.119219667155622044e+00	-5.015200755332914484e-02	-2.578749887014342712e-01
8.321874349990543124e+03	2.109411030488152150e+00	-5.053573023950319598e-02	-2.578726317943672575e-01
