# time(us)	tip(nm)	Fts(nN)	Xb(nm)
1.666668892092886381e+04	3.994208580966404156e+02	-1.895068739497766607e-06	-1.981012610079072900e+01
1.666671142092885202e+04	4.014642451075964686e+02	-1.876751295539724530e-06	-1.980840594619026973e+01
1.666673356378598328e+04	4.034710163072746241e+02	-1.859019330232225661e-06	-1.980671810747774231e+01
1.666675570664311454e+04	4.054735658139937868e+02	-1.841573980879870645e-06	-1.980503520510238147e+01
1.666677784950024579e+04	4.074718263672377816e+02	-1.824409610319559039e-06	-1.980335720425307144e+01
1.666680034950023401e+04	4.094978606695895564e+02	-1.807250491754479690e-06	-1.980165712419265489e+01
1.666682249235736526e+04	4.114872940094532510e+02	-1.790635823337147582e-06	-1.979998890125450117e+01
1.666684463521449652e+04	4.134722708303814329e+02	-1.774285662092365953e-06	-1.979832547727598424e+01
1.666686677807162778e+04	4.154527458716277124e+02	-1.758194732146992942e-06	-1.979666681903344028e+01
1.666688892092875903e+04	4.174286781494365641e+02	-1.742357854868171121e-06	-1.979501289368175065e+01
1.666691142092874725e+04	4.194317886527605310e+02	-1.726520546787652232e-06	-1.979333710668655044e+01
1.666693356378587850e+04	4.213984519093971244e+02	-1.711180538193815902e-06	-1.979169262509807581e+01
1.666695570664300976e+04	4.233604685814035520e+02	-1.696079581939662028e-06	-1.979005277956436260e+01
1.666697784950014102e+04	4.253178086107915874e+02	-1.681212919374668565e-06	-1.978841753869771836e+01
1.666700034950012923e+04	4.273018983454527415e+02	-1.666341678840332946e-06	-1.978676060768328426e+01
1.666702249235726049e+04	4.292497217043389242e+02	-1.651933368846613598e-06	-1.978513455639675911e+01
1.666704463521439175e+04	4.311927810924090068e+02	-1.637745681563676723e-06	-1.978351301719142086e+01
1.666706677807152300e+04	4.331310463127240382e+02	-1.623774316487976131e-06	-1.978189596004212092e+01
1.666708892092865426e+04	4.350644854114896134e+02	-1.610015090831807255e-06	-1.978028335524911796e+01
1.666711142092864247e+04	4.370241301102347506e+02	-1.596247056436222052e-06	-1.977864927110027793e+01
1.666713356378577373e+04	4.389477315712526320e+02	-1.582903295709703821e-06	-1.977704555382864982e+01
1.666715570664290499e+04	4.408663935640303180e+02	-1.569759775978746015e-06	-1.977544620125239661e+01
1.666717784950003625e+04	4.427800709943884954e+02	-1.556812789390401914e-06	-1.977385118492602345e+01
1.666720034950002446e+04	4.447194572371429899e+02	-1.543854595999093033e-06	-1.977223485526899793e+01
1.666722249235715572e+04	4.466229291040436351e+02	-1.531293044669406565e-06	-1.977064849611002373e+01
1.666724463521428333e+04	4.485212512943648449e+02	-1.518917541872605903e-06	-1.976906638920186055e+01
1.666726677807141459e+04	4.504143583248346658e+02	-1.506724836206539245e-06	-1.976748850727423701e+01
1.666728892092854585e+04	4.523021790026215285e+02	-1.494711783699009206e-06	-1.976591482333794403e+01
1.666731142092853406e+04	4.542149541399240320e+02	-1.482685865157212577e-06	-1.976432002999597870e+01
1.666733356378566532e+04	4.560918767143162427e+02	-1.471025877581791922e-06	-1.976275472881371797e+01
1.666735570664279658e+04	4.579632630029614688e+02	-1.459536676033874136e-06	-1.976119354587742549e+01
1.666737784949992783e+04	4.598290186575970893e+02	-1.448215511338047887e-06	-1.975963645528278789e+01
1.666740034949991605e+04	4.617189967798150292e+02	-1.436881130733568764e-06	-1.975805841579730071e+01
1.666742249235704730e+04	4.635730916923667451e+02	-1.425890743046683123e-06	-1.975650949818324165e+01
1.666744463521417856e+04	4.654212397714913436e+02	-1.415060611607323218e-06	-1.975496459633636093e+01
1.666746677807130982e+04	4.672633268923606806e+02	-1.404388309824262476e-06	-1.975342368537110005e+01
1.666748892092844108e+04	4.690992350663011621e+02	-1.393871478865079608e-06	-1.975188674064595062e+01
1.666751142092842929e+04	4.709583004808255282e+02	-1.383341909566234366e-06	-1.975032904407498791e+01
1.666753356378556055e+04	4.727813794562608223e+02	-1.373131605491748379e-06	-1.974880002185450323e+01
1.666755570664269180e+04	4.745979059545681480e+02	-1.363070016115730529e-06	-1.974727489299261762e+01
1.666757784949982306e+04	4.764077523977381929e+02	-1.353155003283779708e-06	-1.974575363379109660e+01
1.666760034949981127e+04	4.782398152475693678e+02	-1.343228054726713002e-06	-1.974421177776388703e+01
1.666762249235694253e+04	4.800358037455664544e+02	-1.333602226454981053e-06	-1.974269824916027716e+01
1.666764463521407379e+04	4.818247259408361174e+02	-1.324116764642189241e-06	-1.974118852009571157e+01
1.666766677807120504e+04	4.836064557045129959e+02	-1.314769674674141024e-06	-1.973968256775984642e+01
1.666768892092833630e+04	4.853808690684199405e+02	-1.305558987225685394e-06	-1.973818036955529109e+01
1.666771142092832451e+04	4.871762829316414809e+02	-1.296337454974108326e-06	-1.973665776473831812e+01
1.666773356378545577e+04	4.889355808919700621e+02	-1.287395869893229804e-06	-1.973516306749161942e+01
1.666775570664258703e+04	4.906872085461749862e+02	-1.278584866057966568e-06	-1.973367205747824826e+01
1.666777784949971829e+04	4.924310573155507313e+02	-1.269902542929750815e-06	-1.973218471292535625e+01
1.666780034949970650e+04	4.941949582611457572e+02	-1.261210046894954164e-06	-1.973067711134429913e+01
1.666782249235683776e+04	4.959228158026553501e+02	-1.252781424080726742e-06	-1.972919709143621603e+01
1.666784463521396901e+04	4.976426010872168035e+02	-1.244475807915076077e-06	-1.972772067250633299e+01
1.666786677807110027e+04	4.993542295887924070e+02	-1.236291331744113493e-06	-1.972624783355989919e+01
1.666788892092823153e+04	5.010576236690624796e+02	-1.228226134786399880e-06	-1.972477855378900813e+01
1.666791142092821974e+04	5.027799845243194454e+02	-1.220151124022404370e-06	-1.972328920046683720e+01
1.666793356378535100e+04	5.044665699395672505e+02	-1.212320774609356767e-06	-1.972182703393519176e+01
1.666795570664248226e+04	5.061447302509351402e+02	-1.204604126651700809e-06	-1.972036836492556588e+01
1.666797784949961351e+04	5.078144168431121557e+02	-1.196999343714175390e-06	-1.971891317335488125e+01
1.666800034949960173e+04	5.095023113771672456e+02	-1.189384605926015543e-06	-1.971743805247314185e+01
1.666802249235673298e+04	5.111547950245773109e+02	-1.181999807227608669e-06	-1.971598981151298702e+01
1.666804463521386424e+04	5.127987009007505321e+02	-1.174721388078809036e-06	-1.971454498846413372e+01
1.666806677807099550e+04	5.144340077521969761e+02	-1.167547552701074304e-06	-1.971310356392899621e+01
1.666808892092812675e+04	5.160607003045216743e+02	-1.160476519855142862e-06	-1.971166551867495897e+01
1.666811142092811497e+04	5.177047959686002514e+02	-1.153394924003935158e-06	-1.971020772098198037e+01
1.666813356378524622e+04	5.193140964205364298e+02	-1.146525808636464551e-06	-1.970877643097886533e+01
1.666815570664237748e+04	5.209147676669479097e+02	-1.139754233370115468e-06	-1.970734846322554645e+01
1.666817784949950874e+04	5.225068131499504034e+02	-1.133078497656630561e-06	-1.970592379912994474e+01
1.666820034949949695e+04	5.241157079536402534e+02	-1.126391535099615124e-06	-1.970447952160860439e+01
1.666822249235662821e+04	5.256903851191248123e+02	-1.119903962050349374e-06	-1.970306146221064836e+01
1.666824463521375947e+04	5.272564627737258434e+02	-1.113507266410339716e-06	-1.970164665132035609e+01
1.666826677807089072e+04	5.288139524726204854e+02	-1.107199866059911598e-06	-1.970023507095305249e+01
1.666828892092802198e+04	5.303628659600783521e+02	-1.100980213929142873e-06	-1.969882670327046625e+01
1.666831142092801019e+04	5.319279886341586234e+02	-1.094748572479128727e-06	-1.969739889258790200e+01
1.666833356378514145e+04	5.334596441079393117e+02	-1.088701280898385205e-06	-1.969599694844196947e+01
1.666835570664227271e+04	5.349827525598240072e+02	-1.082737302866657245e-06	-1.969459816404582497e+01
1.666837784949940396e+04	5.364973192527216952e+02	-1.076855250262830191e-06	-1.969320252213048761e+01
1.666840034949939218e+04	5.380275669310124158e+02	-1.070960859045789961e-06	-1.969178757113678557e+01
1.666842249235652343e+04	5.395249143352044712e+02	-1.065239934623419214e-06	-1.969039821291970327e+01
1.666844463521365469e+04	5.410137135788644400e+02	-1.059597013597773653e-06	-1.968901194592250192e+01
1.666846677807078595e+04	5.424939533555431126e+02	-1.054030885704461741e-06	-1.968762875341732155e+01
1.666848892092791721e+04	5.439656170383568679e+02	-1.048540386035962016e-06	-1.968624861880693544e+01
1.666851142092790542e+04	5.454522095533671973e+02	-1.043037644824356583e-06	-1.968484933927577174e+01
1.666853356378503668e+04	5.469065088224322153e+02	-1.037696263344613374e-06	-1.968347531983616250e+01
1.666855570664216793e+04	5.483521464907046266e+02	-1.032427268801749802e-06	-1.968210430900689900e+01
1.666857784949929919e+04	5.497890818244653701e+02	-1.027229674634145989e-06	-1.968073629069945341e+01
1.666860034949928740e+04	5.512402310648598132e+02	-1.022020412975645002e-06	-1.967934925644998856e+01
1.666862249235641866e+04	5.526594719185264921e+02	-1.016963941689431798e-06	-1.967798722303489356e+01
1.666864463521354992e+04	5.540698496651028790e+02	-1.011976144548191546e-06	-1.967662813435487124e+01
1.666866677807068118e+04	5.554712988273302017e+02	-1.007056194944765068e-06	-1.967527197480611889e+01
1.666868892092781243e+04	5.568637482557669500e+02	-1.002203301567392985e-06	-1.967391872890202009e+01
1.666871142092779701e+04	5.582693591240440583e+02	-9.973400423276098472e-07	-1.967254662513727581e+01
1.666873356378492826e+04	5.596434263280393679e+02	-9.926200694952405660e-07	-1.967119920690037560e+01
1.666875570664205952e+04	5.610082486446899566e+02	-9.879649573944189289e-07	-1.966985465629442587e+01
1.666877784949919078e+04	5.623637362346173632e+02	-9.833740334260566350e-07	-1.966851295828981705e+01
1.666880034949917899e+04	5.637314287726270550e+02	-9.787741431590697859e-07	-1.966715252661815327e+01
1.666882249235631025e+04	5.650678102274254115e+02	-9.743106779825071997e-07	-1.966581653457791035e+01
1.666884463521344151e+04	5.663945682862016611e+02	-9.699095029670983598e-07	-1.966448335047235929e+01
1.666886677807057276e+04	5.677116035483296628e+02	-9.655700234509181091e-07	-1.966315295970844801e+01
1.666888892092770402e+04	5.690188159194018453e+02	-9.612916577301673112e-07	-1.966182534779872171e+01
1.666891142092769223e+04	5.703369474734173536e+02	-9.570062981966356107e-07	-1.966047915442809568e+01
1.666893356378482349e+04	5.716240520618966912e+02	-9.528494173714107275e-07	-1.965915710142272843e+01
1.666895570664195475e+04	5.729010347727826229e+02	-9.487519498355406140e-07	-1.965783778420376748e+01
1.666897784949908601e+04	5.741677997661089421e+02	-9.447133421286885976e-07	-1.965652118869648746e+01
1.666900034949907422e+04	5.754444343481615078e+02	-9.406693189276158828e-07	-1.965518613130019077e+01
1.666902249235620548e+04	5.766903195328716265e+02	-9.367477027123445401e-07	-1.965387498072722039e+01
1.666904463521333673e+04	5.779257170536367312e+02	-9.328832805047715101e-07	-1.965256651001598343e+01
1.666906677807046799e+04	5.791505456783086174e+02	-9.290754958127755155e-07	-1.965126070548680914e+01
1.666908892092759925e+04	5.803647291291161991e+02	-9.253237879100186907e-07	-1.964995755355582219e+01
1.666911142092758746e+04	5.815875190783253856e+02	-9.215684265444551173e-07	-1.964863608627313951e+01
1.666913356378471872e+04	5.827800307698673805e+02	-9.179280499303400453e-07	-1.964733824140580154e+01
1.666915570664184997e+04	5.839617010695018280e+02	-9.143420246866703969e-07	-1.964604300873572029e+01
1.666917784949898123e+04	5.851324770669823465e+02	-9.108097657252136042e-07	-1.964475037505350130e+01
1.666920034949896944e+04	5.863109293072592436e+02	-9.072749993941362087e-07	-1.964343954113618551e+01
1.666922249235610070e+04	5.874596059035033022e+02	-9.038493339588826416e-07	-1.964215210755540042e+01
1.666924463521323196e+04	5.885972670304787471e+02	-9.004756301441051898e-07	-1.964086723366793663e+01
1.666926677807036322e+04	5.897238851524161873e+02	-8.971532776723744216e-07	-1.963958490662370693e+01
1.666928892092749447e+04	5.908394387826219827e+02	-8.938816614802753023e-07	-1.963830511365988229e+01
1.666931142092748269e+04	5.919616354513029819e+02	-8.906086103039032380e-07	-1.963700726153814102e+01
1.666933356378461394e+04	5.930548395355216371e+02	-8.874374005795927789e-07	-1.963573253915296846e+01
1.666935570664174520e+04	5.941369479777935112e+02	-8.843150537045045345e-07	-1.963446031287309879e+01
1.666937784949887646e+04	5.952079602793596678e+02	-8.812409467631733095e-07	-1.963319057027718273e+01
1.666940034949886467e+04	5.962848846366434827e+02	-8.781660308833326829e-07	-1.963190287935196920e+01
1.666942249235599593e+04	5.973335401895014911e+02	-8.751872959720182422e-07	-1.963063810675357601e+01
1.666944463521312719e+04	5.983711204545576265e+02	-8.722549383195964476e-07	-1.962937578087379009e+01
1.666946677807025844e+04	5.993976377166692373e+02	-8.693683513135608594e-07	-1.962811588961950093e+01
1.666948892092738970e+04	6.004131058332145585e+02	-8.665269366957791941e-07	-1.962685842097733868e+01
1.666951142092737791e+04	6.014336497443229064e+02	-8.636853582990848151e-07	-1.962558313983166514e+01
1.666953356378450917e+04	6.024268863399963720e+02	-8.609332409634989925e-07	-1.962433051928290695e+01
1.666955570664164043e+04	6.034091180399508403e+02	-8.582245597397499103e-07	-1.962308028558783946e+01
1.666957784949877168e+04	6.043803579645530135e+02	-8.555587671791673142e-07	-1.962183242704590924e+01
1.666960034949875990e+04	6.053560154287393971e+02	-8.528933633060071488e-07	-1.962056686270771166e+01
1.666962249235589115e+04	6.063051258706185536e+02	-8.503124446960489739e-07	-1.961932375751456448e+01
1.666964463521302241e+04	6.072432697634393435e+02	-8.477728702781898749e-07	-1.961808299264167488e+01
1.666966677807015367e+04	6.081704486071440670e+02	-8.452741677318564506e-07	-1.961684455668963167e+01
1.666968892092728493e+04	6.090866595367494938e+02	-8.428158863602800953e-07	-1.961560843833221313e+01
1.666971142092727314e+04	6.100064053967460040e+02	-8.403589187590075709e-07	-1.961435474495986497e+01
1.666973356378440440e+04	6.109004746800309249e+02	-8.379808535794570002e-07	-1.961312326503031045e+01
1.666975570664153565e+04	6.117835363196945764e+02	-8.356419889706918651e-07	-1.961189406897114296e+01
1.666977784949866691e+04	6.126555656156052692e+02	-8.333419679253823414e-07	-1.961066714574374359e+01
1.666980034949865512e+04	6.135303273905417427e+02	-8.310442954216170269e-07	-1.960942275025178105e+01
1.666982249235578638e+04	6.143800136862722638e+02	-8.288216006258462941e-07	-1.960820037606842448e+01
1.666984463521291764e+04	6.152185552472535619e+02	-8.266368181839965142e-07	-1.960698024184442900e+01
1.666986677807004889e+04	6.160459020246044020e+02	-8.244896867453695836e-07	-1.960576233681857161e+01
1.666988892092718015e+04	6.168619976900486108e+02	-8.223799676573829276e-07	-1.960454665029722676e+01
1.666991142092716836e+04	6.176796670847961650e+02	-8.202743200556269033e-07	-1.960331361745191003e+01
1.666993356378429962e+04	6.184728831838444876e+02	-8.182393915725991572e-07	-1.960210237148030288e+01
1.666995570664143088e+04	6.192546423589913047e+02	-8.162412840856188921e-07	-1.960089331216296671e+01
1.666997784949856214e+04	6.200248655377843079e+02	-8.142798403358824565e-07	-1.959968642907170633e+01
1.667000034949855035e+04	6.207956088001000126e+02	-8.123241716457302206e-07	-1.959846229861148004e+01
1.667002249235568161e+04	6.215423149560455158e+02	-8.104362365833518564e-07	-1.959725977162896271e+01
1.667004463521281286e+04	6.222772203834875882e+02	-8.085845881996872480e-07	-1.959605938980918438e+01
1.667006677806994412e+04	6.230002305192741687e+02	-8.067691283397821620e-07	-1.959486114298040249e+01
1.667008892092707538e+04	6.237112484833593271e+02	-8.049897693583502781e-07	-1.959366502103330987e+01
1.667011142092706359e+04	6.244213491642382223e+02	-8.032186087770620386e-07	-1.959245177301657392e+01
1.667013356378419485e+04	6.251078889184850595e+02	-8.015118009926451105e-07	-1.959125990462030131e+01
1.667015570664132611e+04	6.257821373637630131e+02	-7.998408752402802632e-07	-1.959007013098830541e+01
1.667017784949845372e+04	6.264439954611485746e+02	-7.982057680112092102e-07	-1.958888244225716591e+01
1.667020034949844194e+04	6.271037363136085787e+02	-7.965809140479709005e-07	-1.958767772277374775e+01
1.667022249235557319e+04	6.277403187760883156e+02	-7.950178330912221748e-07	-1.958649420772617233e+01
1.667024463521270445e+04	6.283642229584498864e+02	-7.934903817612359733e-07	-1.958531274819135959e+01
1.667026677806983571e+04	6.289753593268752638e+02	-7.919984929147119720e-07	-1.958413333454379668e+01
1.667028892092696697e+04	6.295736424008478025e+02	-7.905420947129200065e-07	-1.958295595721599014e+01
1.667031142092695518e+04	6.301683260493003900e+02	-7.890984799501721061e-07	-1.958176166598834200e+01
1.667033356378408644e+04	6.307404548214071838e+02	-7.877133914962618565e-07	-1.958058836528824642e+01
1.667035570664121769e+04	6.312995028202050207e+02	-7.863635362257906849e-07	-1.957941707239789153e+01
1.667037784949834895e+04	6.318454063271416317e+02	-7.850488118874594279e-07	-1.957824777797826599e+01
1.667040034949833716e+04	6.323865916051962586e+02	-7.837487524367653787e-07	-1.957706166149194971e+01
1.667042249235546842e+04	6.329058270915062394e+02	-7.825045057199728790e-07	-1.957589636807862021e+01
1.667044463521259968e+04	6.334117662957753510e+02	-7.812950209183350977e-07	-1.957473304530410729e+01
1.667046677806973094e+04	6.339043730029694643e+02	-7.801201544516366999e-07	-1.957357168405066261e+01
1.667048892092686219e+04	6.343836181896389235e+02	-7.789797520422461967e-07	-1.957241227525452842e+01
1.667051142092685041e+04	6.348568841422104470e+02	-7.778560886494272038e-07	-1.957123615698600005e+01
1.667053356378398166e+04	6.353091316242479252e+02	-7.767846587531141001e-07	-1.957008065725572976e+01
1.667055570664111292e+04	6.357479730045728274e+02	-7.757471655819882194e-07	-1.956892708296846095e+01
1.667057784949824418e+04	6.361734071575973530e+02	-7.747434154961531630e-07	-1.956777542527332869e+01
1.667060034949823239e+04	6.365919751891657370e+02	-7.737578319456739920e-07	-1.956660714660349853e+01
1.667062249235536365e+04	6.369904005518781105e+02	-7.728214915622572574e-07	-1.956545932630593398e+01
1.667064463521249490e+04	6.373754519379797330e+02	-7.719182652504214253e-07	-1.956431339621840237e+01
1.667066677806962616e+04	6.377471510111487305e+02	-7.710479332150793788e-07	-1.956316934769647986e+01
1.667068892092675742e+04	6.381055238428557459e+02	-7.702102721583658791e-07	-1.956202717214615916e+01
1.667071142092674563e+04	6.384560572803336527e+02	-7.693923339507875237e-07	-1.956086848414000556e+01
1.667073356378387689e+04	6.387876567926084590e+02	-7.686198557552810280e-07	-1.955973005881589799e+01
1.667075570664100815e+04	6.391060291297214917e+02	-7.678793681646188431e-07	-1.955859348084451454e+01
1.667077784949813940e+04	6.394112116870825275e+02	-7.671706483255710643e-07	-1.955745874183071464e+01
1.667080034949812762e+04	6.397078456011614662e+02	-7.664828125302321445e-07	-1.955630757566712674e+01
1.667082249235525887e+04	6.399865533722813780e+02	-7.658374805125040062e-07	-1.955517651890151143e+01
1.667084463521239013e+04	6.402521880669211214e+02	-7.652232739912663861e-07	-1.955404727606550352e+01
1.667086677806952139e+04	6.405047873640178295e+02	-7.646399949691067810e-07	-1.955291983895702757e+01
1.667088892092665264e+04	6.407443873278513138e+02	-7.640874552784914506e-07	-1.955179419942122720e+01
1.667091142092664086e+04	6.409745711091363773e+02	-7.635573084368206265e-07	-1.955065223735542190e+01
1.667093356378377212e+04	6.411880626877369878e+02	-7.630662177620117023e-07	-1.954953019735378206e+01
1.667095570664090337e+04	6.413886478411102416e+02	-7.626053713381931650e-07	-1.954840993061099752e+01
1.667097784949803463e+04	6.415763503194608575e+02	-7.621746328083556982e-07	-1.954729142915836704e+01
1.667100034949802284e+04	6.417539042708760917e+02	-7.617676626192157736e-07	-1.954615668742876267e+01
