# time(us)	tip(nm)	Fts(nN)	Xb(nm)
1.630437173592529507e+04	2.356736922578670033e+02	-4.744920203001809900e-06	-2.925059702590812449e+01
1.630439347505572005e+04	2.364320914943386356e+02	-4.717941658150719658e-06	-2.924853875039240947e+01
1.630441521418614684e+04	2.371866121594893571e+02	-4.691329025993014865e-06	-2.924648512191698302e+01
1.630443695331657364e+04	2.379372853446316185e+02	-4.665075163232699675e-06	-2.924443611505443386e+01
1.630445869244700043e+04	2.386841375186582752e+02	-4.639173252651012947e-06	-2.924239170458223569e+01
1.630448043157742541e+04	2.394271900387260246e+02	-4.613616808731795972e-06	-2.924035186548017862e+01
1.630450217070785220e+04	2.401664587258464962e+02	-4.588399680736399098e-06	-2.923831657292779340e+01
1.630452390983827900e+04	2.409019535102565612e+02	-4.563516053210062596e-06	-2.923628580230188945e+01
1.630454564896870579e+04	2.416336781505893612e+02	-4.538960443931752177e-06	-2.923425952917405723e+01
1.630456738809913077e+04	2.423616300299617308e+02	-4.514727699349135069e-06	-2.923223772930819564e+01
1.630458912722955756e+04	2.430858000311583282e+02	-4.490812987569162994e-06	-2.923022037865822753e+01
1.630461086635998436e+04	2.438061724921240625e+02	-4.467211789002280711e-06	-2.922820745336562354e+01
1.630463260549041115e+04	2.445227252419994954e+02	-4.443919884784274213e-06	-2.922619892975727396e+01
1.630465434462083795e+04	2.452354297169499375e+02	-4.420933343124092688e-06	-2.922419478434306939e+01
1.630467608375126292e+04	2.459442511540688372e+02	-4.398248503747870757e-06	-2.922219499381380459e+01
1.630469782288168972e+04	2.466491488606871485e+02	-4.375861960629267525e-06	-2.922019953503887635e+01
1.630471956201211651e+04	2.473500765554983616e+02	-4.353770543213387200e-06	-2.921820838506420515e+01
1.630474130114254331e+04	2.480469827770451161e+02	-4.331971296355996349e-06	-2.921622152111023141e+01
1.630476304027296828e+04	2.487398113542874114e+02	-4.310461459211392019e-06	-2.921423892056956717e+01
1.630478477940339508e+04	2.494285019332275510e+02	-4.289238443310851095e-06	-2.921226056100526947e+01
1.630480651853382187e+04	2.501129905528827067e+02	-4.268299810079548481e-06	-2.921028642014867316e+01
1.630482825766424867e+04	2.507932102633090778e+02	-4.247643248042152562e-06	-2.920831647589739077e+01
1.630484999679467364e+04	2.514690917778652022e+02	-4.227266549967291987e-06	-2.920635070631353258e+01
1.630487173592510044e+04	2.521405641515029856e+02	-4.207167590197867418e-06	-2.920438908962163893e+01
1.630489347505552723e+04	2.528075554765585480e+02	-4.187344302408114557e-06	-2.920243160420695006e+01
1.630491521418595403e+04	2.534699935873150025e+02	-4.167794658019746915e-06	-2.920047822861346987e+01
1.630493695331637900e+04	2.541278067645109786e+02	-4.148516645498317417e-06	-2.919852894154222867e+01
1.630495869244680580e+04	2.547809244309796100e+02	-4.129508250737593837e-06	-2.919658372184944284e+01
1.630498043157723259e+04	2.554292778297196662e+02	-4.110767438723956870e-06	-2.919464254854483087e+01
1.630500217070765939e+04	2.560728006759309778e+02	-4.092292136655649279e-06	-2.919270540078989384e+01
1.630502390983808436e+04	2.567114297748719309e+02	-4.074080218672323627e-06	-2.919077225789613550e+01
1.630504564896851116e+04	2.573451055978246700e+02	-4.056129492330126699e-06	-2.918884309932354881e+01
1.630506738809893795e+04	2.579737728089830284e+02	-4.038437686935721393e-06	-2.918691790467880054e+01
1.630508912722936475e+04	2.585973807366817709e+02	-4.021002443830262319e-06	-2.918499665371385632e+01
1.630511086635978972e+04	2.592158837830831430e+02	-4.003821308691215626e-06	-2.918307932632415103e+01
1.630513260549021652e+04	2.598292417671981980e+02	-3.986891725896457583e-06	-2.918116590254725295e+01
1.630515434462064331e+04	2.604374201969477554e+02	-3.970211034971428754e-06	-2.917925636256117627e+01
1.630517608375107011e+04	2.610403904668461905e+02	-3.953776469116756114e-06	-2.917735068668290310e+01
1.630519782288149690e+04	2.616381299788096157e+02	-3.937585155790810120e-06	-2.917544885536703347e+01
1.630521956201192188e+04	2.622306221845460072e+02	-3.921634119298962460e-06	-2.917355084920417241e+01
1.630524130114234868e+04	2.628178565489500329e+02	-3.905920285319958172e-06	-2.917165664891953369e+01
1.630526304027277547e+04	2.633998284349036680e+02	-3.890440487279146551e-06	-2.916976623537161473e+01
1.630528477940320226e+04	2.639765389108562772e+02	-3.875191474458900389e-06	-2.916787958955064752e+01
1.630530651853362724e+04	2.645479944835113884e+02	-3.860169921718783219e-06	-2.916599669257743699e+01
1.630532825766405404e+04	2.651142067588745590e+02	-3.845372440681498608e-06	-2.916411752570183680e+01
1.630534999679448083e+04	2.656751920358003076e+02	-3.830795592226221241e-06	-2.916224207030151661e+01
1.630537173592490763e+04	2.662309708370157750e+02	-3.816435900117946582e-06	-2.916037030788063333e+01
1.630539347505533260e+04	2.667815673833706001e+02	-3.802289865590852467e-06	-2.915850222006854153e+01
1.630541521418575940e+04	2.673270090177684892e+02	-3.788353982694830183e-06	-2.915663778861857125e+01
1.630543695331618619e+04	2.678673255858578273e+02	-3.774624754207943247e-06	-2.915477699540671708e+01
1.630545869244661299e+04	2.684025487810997674e+02	-3.761098707913107814e-06	-2.915291982243049418e+01
1.630548043157703796e+04	2.689327114622784052e+02	-3.747772413035214250e-06	-2.915106625180764155e+01
1.630550217070746476e+04	2.694578469518614838e+02	-3.734642496635121600e-06	-2.914921626577501357e+01
1.630552390983789155e+04	2.699779883238649063e+02	-3.721705659759438909e-06	-2.914736984668740050e+01
1.630554564896831835e+04	2.704931676900116031e+02	-3.708958693149649927e-06	-2.914552697701627793e+01
1.630556738809874332e+04	2.710034154930075374e+02	-3.696398492320947899e-06	-2.914368763934880491e+01
1.630558912722917012e+04	2.715087598156785589e+02	-3.684022071830236203e-06	-2.914185181638664801e+01
1.630561086635959691e+04	2.720092257145237795e+02	-3.671826578563634992e-06	-2.914001949094492261e+01
1.630563260549002371e+04	2.725048345859602819e+02	-3.659809303886684319e-06	-2.913819064595097785e+01
1.630565434462044868e+04	2.729956035731332804e+02	-3.647967694515063762e-06	-2.913636526444348007e+01
1.630567608375087548e+04	2.734815450206879746e+02	-3.636299361979605814e-06	-2.913454332957129722e+01
1.630569782288130227e+04	2.739626659843170842e+02	-3.624802090577064665e-06	-2.913272482459244372e+01
1.630571956201172907e+04	2.744389678012375953e+02	-3.613473843716605425e-06	-2.913090973287307506e+01
1.630574130114215404e+04	2.749104457270161106e+02	-3.602312768591545738e-06	-2.912909803788652852e+01
1.630576304027258084e+04	2.753770886433597411e+02	-3.591317199126188061e-06	-2.912728972321226451e+01
1.630578477940300763e+04	2.758388788406314234e+02	-3.580485657168152369e-06	-2.912548477253487178e+01
1.630580651853343443e+04	2.762957918779408146e+02	-3.569816851917675851e-06	-2.912368316964318637e+01
1.630582825766386122e+04	2.767477965227250252e+02	-3.559309677606009100e-06	-2.912188489842926487e+01
1.630584999679428620e+04	2.771948547707719968e+02	-3.548963209455570825e-06	-2.912008994288749619e+01
1.630587173592471299e+04	2.776369219466587310e+02	-3.538776697974516875e-06	-2.911829828711367796e+01
1.630589347505513979e+04	2.780739468836094375e+02	-3.528749561657379609e-06	-2.911650991530403942e+01
1.630591521418556658e+04	2.785058721808088649e+02	-3.518881378181619419e-06	-2.911472481175443150e+01
1.630593695331599156e+04	2.789326345352736780e+02	-3.509171874206738764e-06	-2.911294296085936040e+01
1.630595869244641835e+04	2.793541651444759850e+02	-3.499620913897949232e-06	-2.911116434711120604e+01
1.630598043157684515e+04	2.797703901750592195e+02	-3.490228486310304856e-06	-2.910938895509924862e+01
1.630600217070727194e+04	2.801812312921853731e+02	-3.480994691781087317e-06	-2.910761676950892252e+01
1.630602390983769692e+04	2.805866062433183288e+02	-3.471919727488520580e-06	-2.910584777512093879e+01
1.630604564896812371e+04	2.809864294895876924e+02	-3.463003872343054475e-06	-2.910408195681043253e+01
1.630606738809855051e+04	2.813806128773068735e+02	-3.454247471383508397e-06	-2.910231929954615637e+01
1.630608912722897730e+04	2.817690663417305359e+02	-3.445650919854571797e-06	-2.910055978838970958e+01
1.630611086635940228e+04	2.821516986347492093e+02	-3.437214647144045339e-06	-2.909880340849472447e+01
1.630613260548982907e+04	2.825284180679320230e+02	-3.428939100758135002e-06	-2.909705014510608834e+01
1.630615434462025587e+04	2.828991332621446304e+02	-3.420824730510980309e-06	-2.909529998355916902e+01
1.630617608375068266e+04	2.832637538948960128e+02	-3.412871973100430841e-06	-2.909355290927901194e+01
1.630619782288110764e+04	2.836221914365951875e+02	-3.405081237236085693e-06	-2.909180890777966866e+01
1.630621956201153444e+04	2.839743598670431197e+02	-3.397452889477821632e-06	-2.909006796466337974e+01
1.630624130114196123e+04	2.843201763637228510e+02	-3.389987240933491748e-06	-2.908833006561989620e+01
1.630626304027238803e+04	2.846595619538041433e+02	-3.382684534953498466e-06	-2.908659519642572988e+01
1.630628477940281300e+04	2.849924421222201545e+02	-3.375544935947486149e-06	-2.908486334294341802e+01
1.630630651853323980e+04	2.853187473687095235e+02	-3.368568519434824862e-06	-2.908313449112087312e+01
1.630632825766366659e+04	2.856384137073484339e+02	-3.361755263425709624e-06	-2.908140862699061202e+01
1.630634999679409339e+04	2.859513831027917945e+02	-3.355105041214247920e-06	-2.907968573666919809e+01
1.630637173592452018e+04	2.862576038382180172e+02	-3.348617615648471545e-06	-2.907796580635635308e+01
1.630639347505494516e+04	2.865570308108079303e+02	-3.342292634925410519e-06	-2.907624882233454144e+01
1.630641521418537195e+04	2.868496257514642593e+02	-3.336129629942148322e-06	-2.907453477096809280e+01
1.630643695331579875e+04	2.871353573664115970e+02	-3.330128013216320747e-06	-2.907282363870264419e+01
1.630645869244622554e+04	2.874142013992527609e+02	-3.324287079372339923e-06	-2.907111541206454319e+01
1.630648043157665052e+04	2.876861406130410046e+02	-3.318606007172145639e-06	-2.906941007766006280e+01
1.630650217070707731e+04	2.879511646928862092e+02	-3.313083863052668193e-06	-2.906770762217493598e+01
1.630652390983750411e+04	2.882092700705895822e+02	-3.307719606115719817e-06	-2.906600803237364872e+01
1.630654564896793090e+04	2.884604596737381712e+02	-3.302512094500403953e-06	-2.906431129509874722e+01
1.630656738809835588e+04	2.887047426026134644e+02	-3.297460093053366630e-06	-2.906261739727048621e+01
1.630658912722878267e+04	2.889421337391383986e+02	-3.292562282198225413e-06	-2.906092632588593716e+01
1.630661086635920947e+04	2.891726532929129121e+02	-3.287817267892907565e-06	-2.905923806801850162e+01
1.630663260548963626e+04	2.893963262901431222e+02	-3.283223592552072988e-06	-2.905755261081746710e+01
1.630665434462006124e+04	2.896131820119648523e+02	-3.278779746801621672e-06	-2.905586994150719704e+01
1.630667608375048803e+04	2.898232533892601168e+02	-3.274484181923718072e-06	-2.905419004738671163e+01
1.630669782288091483e+04	2.900265763615998367e+02	-3.270335322843520585e-06	-2.905251291582908735e+01
1.630671956201134162e+04	2.902231892083617595e+02	-3.266331581503390480e-06	-2.905083853428088503e+01
1.630674130114176660e+04	2.904131318604065086e+02	-3.262471370466637872e-06	-2.904916689026159915e+01
1.630676304027219339e+04	2.905964452009216075e+02	-3.258753116590662552e-06	-2.904749797136306455e+01
1.630678477940262019e+04	2.907731703641618992e+02	-3.255175274609242494e-06	-2.904583176524907273e+01
1.630680651853304698e+04	2.909433480408287664e+02	-3.251736340465192438e-06	-2.904416825965465421e+01
1.630682825766347196e+04	2.911070177987372176e+02	-3.248434864237907355e-06	-2.904250744238564863e+01
1.630684999679389875e+04	2.912642174272197053e+02	-3.245269462515449250e-06	-2.904084930131817188e+01
1.630687173592432555e+04	2.914149823134152939e+02	-3.242238830067492530e-06	-2.903919382439809027e+01
1.630689347505475234e+04	2.915593448581849430e+02	-3.239341750684005459e-06	-2.903754099964050184e+01
1.630691521418517732e+04	2.916973339389044781e+02	-3.236577107054317393e-06	-2.903589081512926384e+01
1.630693695331560411e+04	2.918289744257938310e+02	-3.233943889572778857e-06	-2.903424325901647052e+01
1.630695869244603091e+04	2.919542867577770267e+02	-3.231441203969881265e-06	-2.903259831952191661e+01
1.630698043157645770e+04	2.920732865831285494e+02	-3.229068277681501261e-06	-2.903095598493272789e+01
1.630700217070688450e+04	2.921859844693530590e+02	-3.226824464883999985e-06	-2.902931624360275720e+01
1.630702390983730947e+04	2.922923856858917588e+02	-3.224709250138451460e-06	-2.902767908395217233e+01
1.630704564896773627e+04	2.923924900623413805e+02	-3.222722250603728349e-06	-2.902604449446694801e+01
1.630706738809816306e+04	2.924862919239412236e+02	-3.220863216795036900e-06	-2.902441246369843242e+01
1.630708912722858986e+04	2.925737801051223528e+02	-3.219132031881436523e-06	-2.902278298026285697e+01
1.630711086635901484e+04	2.926549380409515493e+02	-3.217528709533161462e-06	-2.902115603284089218e+01
1.630713260548944163e+04	2.927297439353370123e+02	-3.216053390346334531e-06	-2.901953161017723914e+01
1.630715434461986843e+04	2.927981710039123300e+02	-3.214706336889432043e-06	-2.901790970108003265e+01
1.630717608375029522e+04	2.928601877885919862e+02	-3.213487927431736249e-06	-2.901629029442058183e+01
1.630719782288072020e+04	2.929157585399082109e+02	-3.212398648429378906e-06	-2.901467337913283018e+01
1.630721956201114699e+04	2.929648436623910470e+02	-3.211439085858876247e-06	-2.901305894421294340e+01
1.630724130114157379e+04	2.930074002174842462e+02	-3.210609915501330304e-06	-2.901144697871882627e+01
1.630726304027200058e+04	2.930433824777672953e+02	-3.209911892292351631e-06	-2.900983747176983130e+01
1.630728477940242556e+04	2.930727425256189349e+02	-3.209345838863605536e-06	-2.900823041254617607e+01
1.630730651853285235e+04	2.930954308889081972e+02	-3.208912633410718098e-06	-2.900662579028865551e+01
1.630732825766327915e+04	2.931113972058306558e+02	-3.208613197030067539e-06	-2.900502359429814092e+01
1.630734999679370594e+04	2.931205909106502645e+02	-3.208448480672594723e-06	-2.900342381393522828e+01
1.630737173592413092e+04	2.931229619318347090e+02	-3.208419451867195296e-06	-2.900182643861979415e+01
1.630739347505455771e+04	2.931184613939169594e+02	-3.208527081368390879e-06	-2.900023145783056933e+01
1.630741521418498451e+04	2.931070423143581252e+02	-3.208772329883874206e-06	-2.899863886110489730e+01
1.630743695331541130e+04	2.930886602867435613e+02	-3.209156135036219903e-06	-2.899704863803813026e+01
1.630745869244583628e+04	2.930632741417985585e+02	-3.209679398710363723e-06	-2.899546077828335555e+01
1.630748043157626307e+04	2.930308465779765470e+02	-3.210342974933889639e-06	-2.899387527155101907e+01
1.630750217070668987e+04	2.929913447537342108e+02	-3.211147658431104121e-06	-2.899229210760844211e+01
1.630752390983711666e+04	2.929447408340683978e+02	-3.212094173984272252e-06	-2.899071127627963662e+01
1.630754564896754346e+04	2.928910124844438769e+02	-3.213183166726206795e-06	-2.898913276744469769e+01
1.630756738809796843e+04	2.928301433058730936e+02	-3.214415193478134045e-06	-2.898755657103960459e+01
1.630758912722839523e+04	2.927621232056230269e+02	-3.215790715235033086e-06	-2.898598267705575893e+01
1.630761086635882202e+04	2.926869486988032918e+02	-3.217310090888001030e-06	-2.898441107553967910e+01
1.630763260548924882e+04	2.926046231369275006e+02	-3.218973572259476968e-06	-2.898284175659259887e+01
1.630765434461967379e+04	2.925151568604243835e+02	-3.220781300512743847e-06	-2.898127471037012270e+01
1.630767608375010059e+04	2.924185672729981889e+02	-3.222733303981906715e-06	-2.897970992708188831e+01
1.630769782288052738e+04	2.923148788366909798e+02	-3.224829497452918027e-06	-2.897814739699120068e+01
1.630771956201095418e+04	2.922041229874510009e+02	-3.227069682910260055e-06	-2.897658711041463420e+01
1.630774130114137915e+04	2.920863379719912132e+02	-3.229453551747596276e-06	-2.897502905772180526e+01
1.630776304027180595e+04	2.919615686076662655e+02	-3.231980688424526952e-06	-2.897347322933494240e+01
1.630778477940223274e+04	2.918298659680351648e+02	-3.234650575535521008e-06	-2.897191961572852392e+01
1.630780651853265954e+04	2.916912869976819138e+02	-3.237462600241203420e-06	-2.897036820742904339e+01
1.630782825766308451e+04	2.915458940607218210e+02	-3.240416061996934121e-06	-2.896881899501461533e+01
1.630784999679351131e+04	2.913937544282288741e+02	-3.243510181498805771e-06	-2.896727196911457725e+01
1.630787173592393810e+04	2.912349397105594448e+02	-3.246744110753382339e-06	-2.896572712040932274e+01
1.630789347505436490e+04	2.910695252412195941e+02	-3.250116944164346912e-06	-2.896418443962983602e+01
1.630791521418478987e+04	2.908975894195069145e+02	-3.253627730517480879e-06	-2.896264391755745038e+01
1.630793695331521667e+04	2.907192130196609128e+02	-3.257275485734590212e-06	-2.896110554502347867e+01
1.630795869244564346e+04	2.905344784746622508e+02	-3.261059206257711506e-06	-2.895956931290897174e+01
1.630798043157607026e+04	2.903434691431268106e+02	-3.264977882917043288e-06	-2.895803521214427789e+01
1.630800217070649524e+04	2.901462685679434230e+02	-3.269030515129806323e-06	-2.895650323370886525e+01
1.630802390983692203e+04	2.899429597354064754e+02	-3.273216125272633439e-06	-2.895497336863096649e+01
1.630804564896734882e+04	2.897336243435819938e+02	-3.277533773067187893e-06	-2.895344560798722355e+01
1.630806738809777562e+04	2.895183420885378496e+02	-3.281982569817711061e-06	-2.895191994290248161e+01
1.630808912722820060e+04	2.892971899768455160e+02	-3.286561692339942657e-06	-2.895039636454934850e+01
1.630811086635862739e+04	2.890702416724413411e+02	-3.291270396423573136e-06	-2.894887486414808464e+01
1.630813260548905419e+04	2.888375668855171625e+02	-3.296108029674810280e-06	-2.894735543296614821e+01
1.630815434461948098e+04	2.885992308105950883e+02	-3.301074043592079002e-06	-2.894583806231795720e+01
1.630817608374990778e+04	2.883552936203445825e+02	-3.306168004735891825e-06	-2.894432274356464063e+01
1.630819782288033275e+04	2.881058100210196926e+02	-3.311389604863790383e-06	-2.894280946811366206e+01
1.630821956201075955e+04	2.878508288746478456e+02	-3.316738669912543668e-06	-2.894129822741866320e+01
1.630824130114118634e+04	2.875903928922840009e+02	-3.322215167722854738e-06	-2.893978901297899142e+01
1.630826304027161314e+04	2.873245384017834567e+02	-3.327819214415882759e-06	-2.893828181633962515e+01
1.630828477940203811e+04	2.870532951926432474e+02	-3.333551079346299930e-06	-2.893677662909075821e+01
1.630830651853246491e+04	2.867766864395198922e+02	-3.339411188573036091e-06	-2.893527344286755820e+01
1.630832825766289170e+04	2.864947287050838440e+02	-3.345400126805949321e-06	-2.893377224934992853e+01
1.630834999679331850e+04	2.862074320218998764e+02	-3.351518637804544255e-06	-2.893227304026215663e+01
1.630837173592374347e+04	2.859148000520736446e+02	-3.357767623222851228e-06	-2.893077580737275412e+01
1.630839347505417027e+04	2.856168303224549163e+02	-3.364148139913034109e-06	-2.892928054249410508e+01
1.630841521418459706e+04	2.853135145322781341e+02	-3.370661395718402960e-06	-2.892778723748217118e+01
1.630843695331502386e+04	2.850048389292442721e+02	-3.377308743804488068e-06	-2.892629588423636733e+01
1.630845869244544883e+04	2.846907847492204837e+02	-3.384091675594271015e-06	-2.892480647469912824e+01
1.630848043157587563e+04	2.843713287139652834e+02	-3.391011812390383387e-06	-2.892331900085581253e+01
1.630850217070630242e+04	2.840464435805955645e+02	-3.398070895782769515e-06	-2.892183345473432965e+01
1.630852390983672922e+04	2.837160987358821558e+02	-3.405270776955072537e-06	-2.892034982840488055e+01
1.630854564896715419e+04	2.833802608279308970e+02	-3.412613405016285029e-06	-2.891886811397978718e+01
1.630856738809758099e+04	2.830388944273585139e+02	-3.420100814496207433e-06	-2.891738830361319756e+01
1.630858912722800778e+04	2.826919627097243506e+02	-3.427735112153512563e-06	-2.891591038950083359e+01
