# time(us)	tip(nm)	Fts(nN)	Xb(nm)
1.630437173592529507e+04	5.871828197233169533e+01	-3.500346972445525842e-05	-3.868071703568705288e+01
1.630439347505572005e+04	5.885546159046755577e+01	-3.490675921879334394e-05	-3.867842429396641535e+01
1.630441521418614684e+04	5.899062451902722160e+01	-3.481188055641104025e-05	-3.867613553439476703e+01
1.630443695331657364e+04	5.912376507590977326e+01	-3.471881812976796111e-05	-3.867385073838741505e+01
1.630445869244700043e+04	5.925487791670148141e+01	-3.462755647958871974e-05	-3.867156988747222357e+01
1.630448043157742541e+04	5.938395781200357249e+01	-3.453808045049379453e-05	-3.866929296328884647e+01
1.630450217070785220e+04	5.951099942705557311e+01	-3.445037534154114979e-05	-3.866701994758761884e+01
1.630452390983827900e+04	5.963599710670060006e+01	-3.436442704985560680e-05	-3.866475082222890336e+01
1.630454564896870579e+04	5.975894466866864718e+01	-3.428022220562152822e-05	-3.866248556918189649e+01
1.630456738809913077e+04	5.987983520804650084e+01	-3.419774829682987994e-05	-3.866022417052405302e+01
1.630458912722955756e+04	5.999866091565812809e+01	-3.411699378230672772e-05	-3.865796660843999177e+01
1.630461086635998436e+04	6.011541291290331657e+01	-3.403794819169927635e-05	-3.865571286522072114e+01
1.630463260549041115e+04	6.023008110539438320e+01	-3.396060221125883318e-05	-3.865346292326282907e+01
1.630465434462083795e+04	6.034265405749110300e+01	-3.388494775443792788e-05	-3.865121676506755932e+01
1.630467608375126292e+04	6.045311888957127167e+01	-3.381097801650387980e-05	-3.864897437324004414e+01
1.630469782288168972e+04	6.056146119958845020e+01	-3.373868751256520372e-05	-3.864673573048849420e+01
1.630471956201211651e+04	6.066766501016073931e+01	-3.366807209860715131e-05	-3.864450081962329620e+01
1.630474130114254331e+04	6.077171274211394092e+01	-3.359912897533551279e-05	-3.864226962355640183e+01
1.630476304027296828e+04	6.087358521506924802e+01	-3.353185667483099617e-05	-3.864004212530028326e+01
1.630478477940339508e+04	6.097326167532398244e+01	-3.346625503021849533e-05	-3.863781830796740024e+01
1.630480651853382187e+04	6.107071985093103450e+01	-3.340232512875405502e-05	-3.863559815476927639e+01
1.630482825766424867e+04	6.116593603353818764e+01	-3.334006924892201544e-05	-3.863338164901585969e+01
1.630484999679467364e+04	6.125888518621101753e+01	-3.327949078232078688e-05	-3.863116877411456329e+01
1.630487173592510044e+04	6.134954107613425123e+01	-3.322059414128425057e-05	-3.862895951356976809e+01
1.630489347505552723e+04	6.143787643076953486e+01	-3.316338465334940205e-05	-3.862675385098197012e+01
1.630491521418595403e+04	6.152386311575057931e+01	-3.310786844382358817e-05	-3.862455177004699891e+01
1.630493695331637900e+04	6.160747233251789368e+01	-3.305405230783515239e-05	-3.862235325455545620e+01
1.630495869244680580e+04	6.168867483344132552e+01	-3.300194357336520536e-05	-3.862015828839185616e+01
1.630498043157723259e+04	6.176744115195337770e+01	-3.295154995685069965e-05	-3.861796685553402853e+01
1.630500217070765939e+04	6.184374184501886873e+01	-3.290287941302660305e-05	-3.861577894005232281e+01
1.630502390983808436e+04	6.191754774510406634e+01	-3.285593998072882245e-05	-3.861359452610905407e+01
1.630504564896851116e+04	6.198883021867741405e+01	-3.281073962641847358e-05	-3.861141359795770711e+01
1.630506738809893795e+04	6.205756142818341914e+01	-3.276728608720128522e-05	-3.860923613994229697e+01
1.630508912722936475e+04	6.212371459437203214e+01	-3.272558671511528955e-05	-3.860706213649681473e+01
1.630511086635978972e+04	6.218726425585097672e+01	-3.268564832443593529e-05	-3.860489157214438194e+01
1.630513260549021652e+04	6.224818652274695552e+01	-3.264747704370548297e-05	-3.860272443149677457e+01
1.630515434462064331e+04	6.230645932142033416e+01	-3.261107817413536774e-05	-3.860056069925365563e+01
1.630517608375107011e+04	6.236206262727372973e+01	-3.257645605595193552e-05	-3.859840036020207066e+01
1.630519782288149690e+04	6.241497868282530703e+01	-3.254361394416452617e-05	-3.859624339921566616e+01
1.630521956201192188e+04	6.246519219838558712e+01	-3.251255389512529856e-05	-3.859408980125420641e+01
1.630524130114234868e+04	6.251269053287223443e+01	-3.248327666513109940e-05	-3.859193955136287002e+01
1.630526304027277547e+04	6.255746385252919595e+01	-3.245578162218183406e-05	-3.858979263467169574e+01
1.630528477940320226e+04	6.259950526556959005e+01	-3.243006667186697429e-05	-3.858764903639498556e+01
1.630530651853362724e+04	6.263881093104385656e+01	-3.240612819819824007e-05	-3.858550874183062263e+01
1.630532825766405404e+04	6.267538014053368300e+01	-3.238396102004460807e-05	-3.858337173635962358e+01
1.630534999679448083e+04	6.270921537159274095e+01	-3.236355836365915710e-05	-3.858123800544542803e+01
1.630537173592490763e+04	6.274032231218351541e+01	-3.234491185161557104e-05	-3.857910753463341536e+01
1.630539347505533260e+04	6.276870985570293726e+01	-3.232801150829742051e-05	-3.857698030955025104e+01
1.630541521418575940e+04	6.279439006653225164e+01	-3.231284578190848347e-05	-3.857485631590339636e+01
1.630543695331618619e+04	6.281737811639605695e+01	-3.229940158279581572e-05	-3.857273553948056843e+01
1.630545869244661299e+04	6.283769219215589885e+01	-3.228766433770606016e-05	-3.857061796614906513e+01
1.630548043157703796e+04	6.285535337600096994e+01	-3.227761805942550054e-05	-3.856850358185528194e+01
1.630550217070746476e+04	6.287038549932240272e+01	-3.226924543108953338e-05	-3.856639237262425723e+01
1.630552390983789155e+04	6.288281497186613223e+01	-3.226252790429263745e-05	-3.856428432455901856e+01
1.630554564896831835e+04	6.289267058804824018e+01	-3.225744580997952176e-05	-3.856217942384010655e+01
1.630556738809874332e+04	6.289998331258367159e+01	-3.225397848096100094e-05	-3.856007765672497101e+01
1.630558912722917012e+04	6.290478604782015282e+01	-3.225210438477076074e-05	-3.855797900954761559e+01
1.630561086635959691e+04	6.290711338538029196e+01	-3.225180126546560547e-05	-3.855588346871793703e+01
1.630563260549002371e+04	6.290700134489496520e+01	-3.225304629287201278e-05	-3.855379102072127040e+01
1.630565434462044868e+04	6.290448710275767041e+01	-3.225581621769761913e-05	-3.855170165211782773e+01
1.630567608375087548e+04	6.289960871394242758e+01	-3.226008753085712785e-05	-3.854961534954225755e+01
1.630569782288130227e+04	6.289240482999828430e+01	-3.226583662531460294e-05	-3.854753209970320427e+01
1.630571956201172907e+04	6.288291441637464629e+01	-3.227303995870880088e-05	-3.854545188938267586e+01
1.630574130114215404e+04	6.287117647222781613e+01	-3.228167421501685572e-05	-3.854337470543561039e+01
1.630576304027258084e+04	6.285722975581970218e+01	-3.229171646351720979e-05	-3.854130053478950657e+01
1.630578477940300763e+04	6.284111251854492508e+01	-3.230314431333802550e-05	-3.853922936444374869e+01
1.630580651853343443e+04	6.282286225050621908e+01	-3.231593606192302651e-05	-3.853716118146928693e+01
1.630582825766386122e+04	6.280251544041263401e+01	-3.233007083581032512e-05	-3.853509597300809730e+01
1.630584999679428620e+04	6.278010735239009676e+01	-3.234552872220425220e-05	-3.853303372627278378e+01
1.630587173592471299e+04	6.275567182208370554e+01	-3.236229088992071849e-05	-3.853097442854598853e+01
1.630589347505513979e+04	6.272924107418786122e+01	-3.238033969840574871e-05	-3.852891806718010770e+01
1.630591521418556658e+04	6.270084556327444147e+01	-3.239965879366143439e-05	-3.852686462959670877e+01
1.630593695331599156e+04	6.267051383949949184e+01	-3.242023319006305521e-05	-3.852481410328607581e+01
1.630595869244641835e+04	6.263827244046154163e+01	-3.244204933721240127e-05	-3.852276647580691105e+01
1.630598043157684515e+04	6.260414581016201652e+01	-3.246509517114664744e-05	-3.852072173478575934e+01
1.630600217070727194e+04	6.256815624568384493e+01	-3.248936014940348449e-05	-3.851867986791661025e+01
1.630602390983769692e+04	6.253032387186435415e+01	-3.251483526963295373e-05	-3.851664086296044331e+01
1.630604564896812371e+04	6.249066664389567194e+01	-3.254151307163948757e-05	-3.851460470774488698e+01
1.630606738809855051e+04	6.244920037744306995e+01	-3.256938762293427186e-05	-3.851257139016363595e+01
1.630608912722897730e+04	6.240593880553596762e+01	-3.259845448807340533e-05	-3.851054089817625936e+01
1.630611086635940228e+04	6.236089366116074473e+01	-3.262871068225082111e-05	-3.850851321980751152e+01
1.630613260548982907e+04	6.231407478417060730e+01	-3.266015460980233953e-05	-3.850648834314714719e+01
1.630615434462025587e+04	6.226549025083260602e+01	-3.269278598846016016e-05	-3.850446625634941000e+01
1.630617608375068266e+04	6.221514652405993928e+01	-3.272660576036557256e-05	-3.850244694763259901e+01
1.630619782288110764e+04	6.216304862212628279e+01	-3.276161599100956381e-05	-3.850043040527878446e+01
1.630621956201153444e+04	6.210920030343709897e+01	-3.279781975741698165e-05	-3.849841661763321810e+01
1.630624130114196123e+04	6.205360426474231872e+01	-3.283522102701944071e-05	-3.849640557310413413e+01
1.630626304027238803e+04	6.199626235001477426e+01	-3.287382452877774170e-05	-3.849439726016225904e+01
1.630628477940281300e+04	6.193717576709494921e+01	-3.291363561820893305e-05	-3.849239166734039941e+01
1.630630651853323980e+04	6.187634530911228126e+01	-3.295466013805061764e-05	-3.849038878323311508e+01
1.630632825766366659e+04	6.181377157764411123e+01	-3.299690427635095690e-05	-3.848838859649629285e+01
1.630634999679409339e+04	6.174945520455689518e+01	-3.304037442380816994e-05	-3.848639109584680540e+01
1.630637173592452018e+04	6.168339706950049361e+01	-3.308507703219818532e-05	-3.848439627006210628e+01
1.630639347505494516e+04	6.161559851008595246e+01	-3.313101847572190022e-05	-3.848240410797983913e+01
1.630641521418537195e+04	6.154606152187643886e+01	-3.317820491707591552e-05	-3.848041459849750368e+01
1.630643695331579875e+04	6.147478894545402994e+01	-3.322664218000169722e-05	-3.847842773057212185e+01
1.630645869244622554e+04	6.140178463799276898e+01	-3.327633562999973580e-05	-3.847644349321975454e+01
1.630648043157665052e+04	6.132705362696766827e+01	-3.332729006480653945e-05	-3.847446187551524588e+01
1.630650217070707731e+04	6.125060224385866547e+01	-3.337950961612571373e-05	-3.847248286659183947e+01
1.630652390983750411e+04	6.117243823596179197e+01	-3.343299766398151256e-05	-3.847050645564078764e+01
1.630654564896793090e+04	6.109257085470039073e+01	-3.348775676492202170e-05	-3.846853263191102457e+01
1.630656738809835588e+04	6.101101091912712349e+01	-3.354378859514549062e-05	-3.846656138470884656e+01
1.630658912722878267e+04	6.092777085362113354e+01	-3.360109390945663279e-05	-3.846459270339745018e+01
1.630661086635920947e+04	6.084286469911337036e+01	-3.365967251678034651e-05	-3.846262657739681856e+01
1.630663260548963626e+04	6.075630809750843042e+01	-3.371952327277333788e-05	-3.846066299618307482e+01
1.630665434462006124e+04	6.066811824931002661e+01	-3.378064408987916761e-05	-3.845870194928835417e+01
1.630667608375048803e+04	6.057831384479842285e+01	-3.384303196497106284e-05	-3.845674342630045572e+01
1.630669782288091483e+04	6.048691496944370982e+01	-3.390668302452421807e-05	-3.845478741686237356e+01
1.630671956201134162e+04	6.039394298456630139e+01	-3.397159258705326359e-05	-3.845283391067213330e+01
1.630674130114176660e+04	6.029942038457187437e+01	-3.403775524234798282e-05	-3.845088289748235155e+01
1.630676304027219339e+04	6.020337063238686426e+01	-3.410516494683909171e-05	-3.844893436709990198e+01
1.630678477940262019e+04	6.010581797500107371e+01	-3.417381513423127867e-05	-3.844698830938567369e+01
1.630680651853304698e+04	6.000678724128015062e+01	-3.424369884035329285e-05	-3.844504471425423020e+01
1.630682825766347196e+04	5.990630362444045431e+01	-3.431480884099824481e-05	-3.844310357167335468e+01
1.630684999679389875e+04	5.980439245178006047e+01	-3.438713780136100123e-05	-3.844116487166397889e+01
1.630687173592432555e+04	5.970107894443014374e+01	-3.446067843552975225e-05	-3.843922860429963606e+01
1.630689347505475234e+04	5.959638797002421740e+01	-3.453542367435324392e-05	-3.843729475970626197e+01
1.630691521418517732e+04	5.949034379128513450e+01	-3.461136683988860958e-05	-3.843536332806188227e+01
1.630693695331560411e+04	5.938296981359267335e+01	-3.468850182453759641e-05	-3.843343429959628565e+01
1.630695869244603091e+04	5.927428833462057867e+01	-3.476682327290230978e-05	-3.843150766459070411e+01
1.630698043157645770e+04	5.916432029911979384e+01	-3.484632676433913642e-05	-3.842958341337757133e+01
1.630700217070688450e+04	5.905308506187758155e+01	-3.492700899415787565e-05	-3.842766153634011062e+01
1.630702390983730947e+04	5.894060016179319206e+01	-3.500886795140798510e-05	-3.842574202391215010e+01
1.630704564896773627e+04	5.882688110989094099e+01	-3.509190309121227208e-05	-3.842382486657773910e+01
1.630706738809816306e+04	5.871194119393332755e+01	-3.517611549965166205e-05	-3.842191005487094912e+01
1.630708912722858986e+04	5.859579130210792641e+01	-3.526150804927308865e-05	-3.841999757937544757e+01
1.630711086635901484e+04	5.847843976804296773e+01	-3.534808554338370441e-05	-3.841808743072435561e+01
1.630713260548944163e+04	5.835989223915783697e+01	-3.543585484741149457e-05	-3.841617959959982898e+01
1.630715434461986843e+04	5.824015157008322774e+01	-3.552482500574901335e-05	-3.841427407673285188e+01
1.630717608375029522e+04	5.811921774259334228e+01	-3.561500734265499798e-05	-3.841237085290295283e+01
1.630719782288072020e+04	5.799708781318035733e+01	-3.570641554596574714e-05	-3.841046991893787066e+01
1.630721956201114699e+04	5.787375588907653423e+01	-3.579906573256190451e-05	-3.840857126571331293e+01
1.630724130114157379e+04	5.774921313319487126e+01	-3.589297649474329570e-05	-3.840667488415265751e+01
1.630726304027200058e+04	5.762344779811735407e+01	-3.598816892688521101e-05	-3.840478076522672524e+01
1.630728477940242556e+04	5.749644528891780482e+01	-3.608466663197700512e-05	-3.840288889995341037e+01
1.630730651853285235e+04	5.736818825426552593e+01	-3.618249570787853347e-05	-3.840099927939749591e+01
1.630732825766327915e+04	5.723865670492139657e+01	-3.628168471336905922e-05	-3.839911189467034092e+01
1.630734999679370594e+04	5.710782815841587023e+01	-3.638226461429899708e-05	-3.839722673692966026e+01
1.630737173592413092e+04	5.697567780838867435e+01	-3.648426871039097265e-05	-3.839534379737911962e+01
1.630739347505455771e+04	5.684217871677859080e+01	-3.658773254346597099e-05	-3.839346306726827862e+01
1.630741521418498451e+04	5.670730202678493015e+01	-3.669269378808887592e-05	-3.839158453789215031e+01
1.630743695331541130e+04	5.657101719427605957e+01	-3.679919212583826032e-05	-3.838970820059103772e+01
1.630745869244583628e+04	5.643329223510628623e+01	-3.690726910459839107e-05	-3.838783404675024258e+01
1.630748043157626307e+04	5.629409398561580957e+01	-3.701696798445088806e-05	-3.838596206779978104e+01
1.630750217070668987e+04	5.615338837343755074e+01	-3.712833357190222460e-05	-3.838409225521417767e+01
1.630752390983711666e+04	5.601114069561549513e+01	-3.724141204432350455e-05	-3.838222460051219542e+01
1.630754564896754346e+04	5.586731590095860867e+01	-3.735625076659687238e-05	-3.838035909525654432e+01
1.630756738809796843e+04	5.572187887350910529e+01	-3.747289810205727136e-05	-3.837849573105368250e+01
1.630758912722839523e+04	5.557479471399832249e+01	-3.759140321988906411e-05	-3.837663449955354622e+01
1.630761086635882202e+04	5.542602901619234501e+01	-3.771181590118413089e-05	-3.837477539244928693e+01
1.630763260548924882e+04	5.527554813509954101e+01	-3.783418634588836321e-05	-3.837291840147704391e+01
1.630765434461967379e+04	5.512331944411552342e+01	-3.795856498286059020e-05	-3.837106351841566720e+01
1.630767608375010059e+04	5.496931157832080572e+01	-3.808500228523962322e-05	-3.836921073508655411e+01
1.630769782288052738e+04	5.481349466132030557e+01	-3.821354859326222246e-05	-3.836736004335334371e+01
1.630771956201095418e+04	5.465584051321767589e+01	-3.834425394659858317e-05	-3.836551143512162554e+01
1.630774130114137915e+04	5.449632283755005346e+01	-3.847716792817397501e-05	-3.836366490233886850e+01
1.630776304027180595e+04	5.433491738526961967e+01	-3.861233952132359467e-05	-3.836182043699398037e+01
1.630778477940223274e+04	5.417160209413849969e+01	-3.874981698198835876e-05	-3.835997803111723670e+01
1.630780651853265954e+04	5.400635720220594038e+01	-3.888964772749943722e-05	-3.835813767677993269e+01
1.630782825766308451e+04	5.383916533435240837e+01	-3.903187824332375437e-05	-3.835629936609422685e+01
1.630784999679351131e+04	5.367001156121528282e+01	-3.917655400895025947e-05	-3.835446309121293496e+01
1.630787173592393810e+04	5.349888343014541903e+01	-3.932371944389240301e-05	-3.835262884432913921e+01
1.630789347505436490e+04	5.332577096818497608e+01	-3.947341787456540800e-05	-3.835079661767614567e+01
1.630791521418478987e+04	5.315066665739612262e+01	-3.962569152257048292e-05	-3.834896640352719288e+01
1.630793695331521667e+04	5.297356538320409669e+01	-3.978058151468591414e-05	-3.834713819419516057e+01
1.630795869244564346e+04	5.279446435674513793e+01	-3.993812791462531269e-05	-3.834531198203247015e+01
1.630798043157607026e+04	5.261336301252257641e+01	-4.009836977638347143e-05	-3.834348775943071530e+01
1.630800217070649524e+04	5.243026288297084392e+01	-4.026134521874751563e-05	-3.834166551882061214e+01
1.630802390983692203e+04	5.224516745180433475e+01	-4.042709152031264086e-05	-3.833984525267161558e+01
1.630804564896734882e+04	5.205808198827983801e+01	-4.059564523410620282e-05	-3.833802695349182699e+01
1.630806738809777562e+04	5.186901336472967472e+01	-4.076704232069522485e-05	-3.833621061382770279e+01
1.630808912722820060e+04	5.167796985991753189e+01	-4.094131829843404401e-05	-3.833439622626387688e+01
1.630811086635862739e+04	5.148496095093598512e+01	-4.111850840930125973e-05	-3.833258378342292616e+01
1.630813260548905419e+04	5.128999709649553296e+01	-4.129864779858182227e-05	-3.833077327796515732e+01
1.630815434461948098e+04	5.109308951455098224e+01	-4.148177170647393558e-05	-3.832896470258842214e+01
1.630817608374990778e+04	5.089424995727244294e+01	-4.166791566954050234e-05	-3.832715805002785459e+01
1.630819782288033275e+04	5.069349048638799360e+01	-4.185711572978994383e-05	-3.832535331305576420e+01
1.630821956201075955e+04	5.049082325191336196e+01	-4.204940864905363883e-05	-3.832355048448130930e+01
1.630824130114118634e+04	5.028626027722945935e+01	-4.224483212623814484e-05	-3.832174955715034770e+01
1.630826304027161314e+04	5.007981325338130318e+01	-4.244342501496526558e-05	-3.831995052394525914e+01
1.630828477940203811e+04	4.987149334534738188e+01	-4.264522753907475620e-05	-3.831815337778466812e+01
1.630830651853246491e+04	4.966131101287050598e+01	-4.285028150345568241e-05	-3.831635811162333027e+01
1.630832825766289170e+04	4.944927584825118316e+01	-4.305863049769012910e-05	-3.831456471845188361e+01
1.630834999679331850e+04	4.923539643328497561e+01	-4.327032009004311183e-05	-3.831277319129662828e+01
1.630837173592374347e+04	4.901968021727883240e+01	-4.348539800940674467e-05	-3.831098352321936318e+01
1.630839347505417027e+04	4.880213341781050929e+01	-4.370391431291568025e-05	-3.830919570731716561e+01
1.630841521418459706e+04	4.858276094560519454e+01	-4.392592153708130791e-05	-3.830740973672225635e+01
1.630843695331502386e+04	4.836156635459484221e+01	-4.415147483045404040e-05	-3.830562560460168697e+01
1.630845869244544883e+04	4.813855181790449222e+01	-4.438063206600822806e-05	-3.830384330415728300e+01
1.630848043157587563e+04	4.791371813017963177e+01	-4.461345393165329419e-05	-3.830206282862535971e+01
1.630850217070630242e+04	4.768706473633403675e+01	-4.485000399750315369e-05	-3.830028417127653739e+01
1.630852390983672922e+04	4.745858978645900095e+01	-4.509034875878691577e-05	-3.829850732541559211e+01
1.630854564896715419e+04	4.722829021630361268e+01	-4.533455765354695293e-05	-3.829673228438122834e+01
1.630856738809758099e+04	4.699616185240737565e+01	-4.558270305454928232e-05	-3.829495904154597241e+01
1.630858912722800778e+04	4.676219954065318518e+01	-4.583486023511824790e-05	-3.829318759031581720e+01
