# time(us)	tip(nm)	Fts(nN)	Xb(nm)
1.630437173592529507e+04	2.017580388738675197e+02	-6.079893434255350488e-06	-3.224634972083681106e+01
1.630439347505572005e+04	2.023148259903831558e+02	-6.051172958704147096e-06	-3.224419675759589410e+01
1.630441521418614684e+04	2.028678445988326473e+02	-6.022847931324603012e-06	-3.224204829816783047e+01
1.630443695331657364e+04	2.034170366828295755e+02	-5.994915363940457205e-06	-3.223990431925815869e+01
1.630445869244700043e+04	2.039623462685229924e+02	-5.967372211352426611e-06	-3.223776479774168280e+01
1.630448043157742541e+04	2.045037199840861604e+02	-5.940215346797508494e-06	-3.223562971066039040e+01
1.630450217070785220e+04	2.050411075821427858e+02	-5.913441540184873747e-06	-3.223349903522181137e+01
1.630452390983827900e+04	2.055744624185601594e+02	-5.887047439291101883e-06	-3.223137274879709224e+01
1.630454564896870579e+04	2.061037418815889453e+02	-5.861029554061341845e-06	-3.222925082891913462e+01
1.630456738809913077e+04	2.066289077659445752e+02	-5.835384244126038590e-06	-3.222713325328084721e+01
1.630458912722955756e+04	2.071499265871154307e+02	-5.810107709605214761e-06	-3.222501999973354714e+01
1.630461086635998436e+04	2.076667698319221529e+02	-5.785195985234726643e-06	-3.222291104628502723e+01
1.630463260549041115e+04	2.081794141421469533e+02	-5.760644937811217232e-06	-3.222080637109797152e+01
1.630465434462083795e+04	2.086878414288823365e+02	-5.736450266915805092e-06	-3.221870595248833524e+01
1.630467608375126292e+04	2.091920389161075491e+02	-5.712607508840533529e-06	-3.221660976892364658e+01
1.630469782288168972e+04	2.096919991128798983e+02	-5.689112043607082959e-06	-3.221451779902141510e+01
1.630471956201211651e+04	2.101877197144126228e+02	-5.665959104934409829e-06	-3.221243002154755430e+01
1.630474130114254331e+04	2.106792034331926686e+02	-5.643143792980991900e-06	-3.221034641541483978e+01
1.630476304027296828e+04	2.111664577621603485e+02	-5.620661089658687567e-06	-3.220826695968133180e+01
1.630478477940339508e+04	2.116494946728152229e+02	-5.598505876289105459e-06	-3.220619163354891157e+01
1.630480651853382187e+04	2.121283302519196354e+02	-5.576672953349983788e-06	-3.220412041636179623e+01
1.630482825766424867e+04	2.126029842812359334e+02	-5.555157062038562946e-06	-3.220205328760508934e+01
1.630484999679467364e+04	2.130734797654394015e+02	-5.533952907361826464e-06	-3.219999022690322477e+01
1.630487173592510044e+04	2.135398424139963822e+02	-5.513055182449355261e-06	-3.219793121401875169e+01
1.630489347505552723e+04	2.140021000833711469e+02	-5.492458593774159706e-06	-3.219587622885078559e+01
1.630491521418595403e+04	2.144602821864215514e+02	-5.472157886959760969e-06	-3.219382525143367246e+01
1.630493695331637900e+04	2.149144190762558253e+02	-5.452147872848516821e-06	-3.219177826193568137e+01
1.630495869244680580e+04	2.153645414121478439e+02	-5.432423453506390304e-06	-3.218973524065765446e+01
1.630498043157723259e+04	2.158106795153372843e+02	-5.412979647843195952e-06	-3.218769616803164979e+01
1.630500217070765939e+04	2.162528627226786284e+02	-5.393811616534872218e-06	-3.218566102461968370e+01
1.630502390983808436e+04	2.166911187461365103e+02	-5.374914685945263146e-06	-3.218362979111249444e+01
1.630504564896851116e+04	2.171254730460694304e+02	-5.356284370759097924e-06	-3.218160244832824901e+01
1.630506738809893795e+04	2.175559482260822222e+02	-5.337916395055503987e-06	-3.217957897721131388e+01
1.630508912722936475e+04	2.179825634569780277e+02	-5.319806711571787654e-06	-3.217755935883106844e+01
1.630511086635978972e+04	2.184053339369934577e+02	-5.301951518930573173e-06	-3.217554357438064727e+01
1.630513260549021652e+04	2.188242703950690213e+02	-5.284347276629098496e-06	-3.217353160517583888e+01
1.630515434462064331e+04	2.192393786433924276e+02	-5.266990717617402980e-06	-3.217152343265390613e+01
1.630517608375107011e+04	2.196506591848582843e+02	-5.249878858322025499e-06	-3.216951903837234994e+01
1.630519782288149690e+04	2.200581068804294489e+02	-5.233009006002980258e-06	-3.216751840400794293e+01
1.630521956201192188e+04	2.204617106806632876e+02	-5.216378763364213878e-06	-3.216552151135544335e+01
1.630524130114234868e+04	2.208614534248889356e+02	-5.199986030370860369e-06	-3.216352834232667135e+01
1.630526304027277547e+04	2.212573117107091889e+02	-5.183829003259936300e-06	-3.216153887894927266e+01
1.630528477940320226e+04	2.216492558356495977e+02	-5.167906170764291634e-06	-3.215955310336580197e+01
1.630530651853362724e+04	2.220372498119028819e+02	-5.152216307602594861e-06	-3.215757099783253636e+01
1.630532825766405404e+04	2.224212514542376198e+02	-5.136758465319577157e-06	-3.215559254471853734e+01
1.630534999679448083e+04	2.228012125402520383e+02	-5.121531960591582109e-06	-3.215361772650457794e+01
1.630537173592490763e+04	2.231770790412792564e+02	-5.106536361141029523e-06	-3.215164652578218352e+01
1.630539347505533260e+04	2.235487914213967997e+02	-5.091771469430342554e-06	-3.214967892525262272e+01
1.630541521418575940e+04	2.239162850011693422e+02	-5.077237304330235351e-06	-3.214771490772588436e+01
1.630543695331618619e+04	2.242794903819710157e+02	-5.062934080979131346e-06	-3.214575445611978211e+01
1.630545869244661299e+04	2.246383339260004846e+02	-5.048862189069646451e-06	-3.214379755345897394e+01
1.630548043157703796e+04	2.249927382864322851e+02	-5.035022169813816045e-06	-3.214184418287405975e+01
1.630550217070746476e+04	2.253426229815356123e+02	-5.021414691851993953e-06	-3.213989432760052978e+01
1.630552390983789155e+04	2.256879050060723273e+02	-5.008040526379425019e-06	-3.213794797097809663e+01
1.630554564896831835e+04	2.260284994728270647e+02	-4.994900521771171734e-06	-3.213600509644947323e+01
1.630556738809874332e+04	2.263643202767647153e+02	-4.981995577988756229e-06	-3.213406568755982562e+01
1.630558912722917012e+04	2.266952807740407252e+02	-4.969326621051502900e-06	-3.213212972795562905e+01
1.630561086635959691e+04	2.270212944679114457e+02	-4.956894577851905979e-06	-3.213019720138394320e+01
1.630563260549002371e+04	2.273422756935125051e+02	-4.944700351587601541e-06	-3.212826809169152398e+01
1.630565434462044868e+04	2.276581402934922664e+02	-4.932744798072636773e-06	-3.212634238282397092e+01
1.630567608375087548e+04	2.279688062766014696e+02	-4.921028703178181448e-06	-3.212442005882491713e+01
1.630569782288130227e+04	2.282741944515534271e+02	-4.909552761637512177e-06	-3.212250110383523349e+01
1.630571956201172907e+04	2.285742290287689684e+02	-4.898317557432538456e-06	-3.212058550209212626e+01
1.630574130114215404e+04	2.288688381830214098e+02	-4.887323545959176675e-06	-3.211867323792846207e+01
1.630576304027258084e+04	2.291579545704725263e+02	-4.876571038147127298e-06	-3.211676429577187974e+01
1.630578477940300763e+04	2.294415157941430436e+02	-4.866060186686494030e-06	-3.211485866014410107e+01
1.630580651853343443e+04	2.297194648125026220e+02	-4.855790974488504050e-06	-3.211295631566007813e+01
1.630582825766386122e+04	2.299917502865445158e+02	-4.845763205482183333e-06	-3.211105724702728281e+01
1.630584999679428620e+04	2.302583268614730230e+02	-4.835976497821850368e-06	-3.210916143904497488e+01
1.630587173592471299e+04	2.305191553799185442e+02	-4.826430279553335608e-06	-3.210726887660337070e+01
1.630589347505513979e+04	2.307742030244340299e+02	-4.817123786759457047e-06	-3.210537954468310318e+01
1.630591521418556658e+04	2.310234433878847540e+02	-4.808056064177736779e-06	-3.210349342835424835e+01
1.630593695331599156e+04	2.312668564712202510e+02	-4.799225968256581427e-06	-3.210161051277584932e+01
1.630595869244641835e+04	2.315044286089983245e+02	-4.790632172589502481e-06	-3.209973078319501383e+01
1.630598043157684515e+04	2.317361523239110568e+02	-4.782273175641366290e-06	-3.209785422494642404e+01
1.630600217070727194e+04	2.319620261124177034e+02	-4.774147310656240094e-06	-3.209598082345143411e+01
1.630602390983769692e+04	2.321820541644291325e+02	-4.766252757613081649e-06	-3.209411056421759412e+01
1.630604564896812371e+04	2.323962460207845311e+02	-4.758587557073875807e-06	-3.209224343283781167e+01
1.630606738809855051e+04	2.326046161730106689e+02	-4.751149625748934720e-06	-3.209037941498981183e+01
1.630608912722897730e+04	2.328071836105503110e+02	-4.743936773586213610e-06	-3.208851849643542664e+01
1.630611086635940228e+04	2.330039713212821084e+02	-4.736946722175414796e-06	-3.208666066301998399e+01
1.630613260548982907e+04	2.331950057517098855e+02	-4.730177124244389829e-06	-3.208480590067158289e+01
1.630615434462025587e+04	2.333803162336824357e+02	-4.723625584014119644e-06	-3.208295419540061033e+01
1.630617608375068266e+04	2.335599343849039258e+02	-4.717289678170000955e-06	-3.208110553329895254e+01
1.630619782288110764e+04	2.337338934907999430e+02	-4.711166977201440375e-06	-3.207925990053955445e+01
1.630621956201153444e+04	2.339022278755232094e+02	-4.705255066858400900e-06	-3.207741728337563103e+01
1.630624130114196123e+04	2.340649722700026416e+02	-4.699551569473282034e-06	-3.207557766814016276e+01
1.630626304027238803e+04	2.342221611849597878e+02	-4.694054164898906773e-06	-3.207374104124536274e+01
1.630628477940281300e+04	2.343738282967432269e+02	-4.688760610818724208e-06	-3.207190738918190931e+01
1.630630651853323980e+04	2.345200058536638039e+02	-4.683668762193073239e-06	-3.207007669851859077e+01
1.630632825766366659e+04	2.346607241102478554e+02	-4.678776589616052660e-06	-3.206824895590148827e+01
1.630634999679409339e+04	2.347960107964688348e+02	-4.674082196370818386e-06	-3.206642414805363472e+01
1.630637173592452018e+04	2.349258906285783155e+02	-4.669583833986573423e-06	-3.206460226177424744e+01
1.630639347505494516e+04	2.350503848676351879e+02	-4.665279916118457163e-06	-3.206278328393835864e+01
1.630641521418537195e+04	2.351695109312321676e+02	-4.661169030591439951e-06	-3.206096720149611201e+01
1.630643695331579875e+04	2.352832820632567348e+02	-4.657249949471073870e-06	-3.205915400147233640e+01
1.630645869244622554e+04	2.353917070658000057e+02	-4.653521637047251764e-06	-3.205734367096592052e+01
1.630648043157665052e+04	2.354947900965520944e+02	-4.649983255641788692e-06	-3.205553619714934399e+01
1.630650217070707731e+04	2.355925305342106810e+02	-4.646634169176250907e-06	-3.205373156726807338e+01
1.630652390983750411e+04	2.356849229135809480e+02	-4.643473944462813742e-06	-3.205192976864016430e+01
1.630654564896793090e+04	2.357719569311831833e+02	-4.640502350207750213e-06	-3.205013078865560061e+01
1.630656738809835588e+04	2.358536175213081094e+02	-4.637719353743776119e-06	-3.204833461477591783e+01
1.630658912722878267e+04	2.359298850015828748e+02	-4.635125115534247015e-06	-3.204654123453357784e+01
1.630661086635920947e+04	2.360007352862529331e+02	-4.632719981518065764e-06	-3.204475063553155678e+01
1.630663260548963626e+04	2.360661401645387230e+02	-4.630504473389275582e-06	-3.204296280544283348e+01
1.630665434462006124e+04	2.361260676406249388e+02	-4.628479276929182039e-06	-3.204117773200987784e+01
1.630667608375048803e+04	2.361804823310668269e+02	-4.626645228531388708e-06	-3.203939540304418898e+01
1.630669782288091483e+04	2.362293459146906116e+02	-4.625003300080754727e-06	-3.203761580642578366e+01
1.630671956201134162e+04	2.362726176294076481e+02	-4.623554582366097669e-06	-3.203583893010277706e+01
1.630674130114176660e+04	2.363102548097778595e+02	-4.622300267223040716e-06	-3.203406476209084275e+01
1.630676304027219339e+04	2.363422134586481036e+02	-4.621241628617721359e-06	-3.203229329047282903e+01
1.630678477940262019e+04	2.363684488457653856e+02	-4.620380002893680678e-06	-3.203052450339821888e+01
1.630680651853304698e+04	2.363889161259200478e+02	-4.619716768413716990e-06	-3.202875838908273209e+01
1.630682825766347196e+04	2.364035709689281362e+02	-4.619253324834661669e-06	-3.202699493580784207e+01
1.630684999679389875e+04	2.364123701936063924e+02	-4.618991072256981287e-06	-3.202523413192037083e+01
1.630687173592432555e+04	2.364152723978317852e+02	-4.618931390492180870e-06	-3.202347596583197742e+01
1.630689347505475234e+04	2.364122385768186234e+02	-4.619075618689040788e-06	-3.202172042601878843e+01
1.630691521418517732e+04	2.364032327218761793e+02	-4.619425035555710843e-06	-3.201996750102092903e+01
1.630693695331560411e+04	2.363882223921431773e+02	-4.619980840407341299e-06	-3.201821717944211798e+01
1.630695869244603091e+04	2.363671792521128339e+02	-4.620744135259712353e-06	-3.201646944994920574e+01
1.630698043157645770e+04	2.363400795681712907e+02	-4.621715908177377853e-06	-3.201472430127175528e+01
1.630700217070688450e+04	2.363069046578667667e+02	-4.622897018070656325e-06	-3.201298172220167260e+01
1.630702390983730947e+04	2.362676412861911786e+02	-4.624288181119848529e-06	-3.201124170159278037e+01
1.630704564896773627e+04	2.362222820037985684e+02	-4.625889958986830056e-06	-3.200950422836038456e+01
1.630706738809816306e+04	2.361708254227849295e+02	-4.627702748954435014e-06	-3.200776929148081962e+01
1.630708912722858986e+04	2.361132764264058039e+02	-4.629726776112991281e-06	-3.200603687999119273e+01
1.630711086635901484e+04	2.360496463099110542e+02	-4.631962087690704633e-06	-3.200430698298880827e+01
1.630713260548944163e+04	2.359799528505109549e+02	-4.634408549601022851e-06	-3.200257958963097593e+01
1.630715434461986843e+04	2.359042203053392655e+02	-4.637065845256012869e-06	-3.200085468913440678e+01
1.630717608375029522e+04	2.358224793371594501e+02	-4.639933476669679628e-06	-3.199913227077496458e+01
1.630719782288072020e+04	2.357347668684321036e+02	-4.643010767850004384e-06	-3.199741232388725720e+01
1.630721956201114699e+04	2.356411258652299807e+02	-4.646296870453292821e-06	-3.199569483786423163e+01
1.630724130114157379e+04	2.355416050533409020e+02	-4.649790771649193598e-06	-3.199397980215680093e+01
1.630726304027200058e+04	2.354362585697157044e+02	-4.653491304120323790e-06	-3.199226720627348186e+01
1.630728477940242556e+04	2.353251455532083583e+02	-4.657397158096300594e-06	-3.199055703978002185e+01
1.630730651853285235e+04	2.352083296792887097e+02	-4.661506895299112205e-06	-3.198884929229905794e+01
1.630732825766327915e+04	2.350858786440861365e+02	-4.665818964654892888e-06	-3.198714395350970463e+01
1.630734999679370594e+04	2.349578636037412878e+02	-4.670331719606851210e-06	-3.198544101314723065e+01
1.630737173592413092e+04	2.348243585755800211e+02	-4.675043436845313195e-06	-3.198374046100265744e+01
1.630739347505455771e+04	2.346854398080889439e+02	-4.679952336254080217e-06	-3.198204228692249984e+01
1.630741521418498451e+04	2.345411851270485215e+02	-4.685056601857519060e-06	-3.198034648080827580e+01
1.630743695331541130e+04	2.343916732654680573e+02	-4.690354403540368797e-06	-3.197865303261631098e+01
1.630745869244583628e+04	2.342369831851640640e+02	-4.695843919302079658e-06	-3.197696193235720941e+01
1.630748043157626307e+04	2.340771933979189043e+02	-4.701523357800344204e-06	-3.197527317009577530e+01
1.630750217070668987e+04	2.339123812941663516e+02	-4.707390980933481893e-06	-3.197358673595035228e+01
1.630752390983711666e+04	2.337426224870512215e+02	-4.713445126209692382e-06	-3.197190262009278072e+01
1.630754564896754346e+04	2.335679901795285218e+02	-4.719684228651950101e-06	-3.197022081274785066e+01
1.630756738809796843e+04	2.333885545618799711e+02	-4.726106841991428442e-06	-3.196854130419313833e+01
1.630758912722839523e+04	2.332043822466613392e+02	-4.732711658908925815e-06	-3.196686408475848395e+01
1.630761086635882202e+04	2.330155357476330096e+02	-4.739497530093571136e-06	-3.196518914482587803e+01
1.630763260548924882e+04	2.328220730086918593e+02	-4.746463481900578328e-06	-3.196351647482901370e+01
1.630765434461967379e+04	2.326240469882165200e+02	-4.753608732404840688e-06	-3.196184606525297056e+01
1.630767608375010059e+04	2.324215053035633787e+02	-4.760932705664835282e-06	-3.196017790663394820e+01
1.630769782288052738e+04	2.322144899397208633e+02	-4.768435044031323719e-06	-3.195851198955888961e+01
1.630771956201095418e+04	2.320030370253455487e+02	-4.776115618357560143e-06	-3.195684830466523607e+01
1.630774130114137915e+04	2.317871766785938519e+02	-4.783974535991469762e-06	-3.195518684264056120e+01
1.630776304027180595e+04	2.315669329243098105e+02	-4.792012146456036440e-06	-3.195352759422231870e+01
1.630778477940223274e+04	2.313423236832678072e+02	-4.800229044750804198e-06	-3.195187055019744449e+01
1.630780651853265954e+04	2.311133608332948199e+02	-4.808626072235363065e-06	-3.195021570140217193e+01
1.630782825766308451e+04	2.308800503412289515e+02	-4.817204315083873942e-06	-3.194856303872166237e+01
1.630784999679351131e+04	2.306423924638102676e+02	-4.825965100328617517e-06	-3.194691255308968536e+01
1.630787173592393810e+04	2.304003820147709121e+02	-4.834909989538916872e-06	-3.194526423548841265e+01
1.630789347505436490e+04	2.301540086945926191e+02	-4.844040770209960831e-06	-3.194361807694804867e+01
1.630791521418478987e+04	2.299032574786406542e+02	-4.853359444963506580e-06	-3.194197406854652499e+01
1.630793695331521667e+04	2.296481090586851224e+02	-4.862868218688554958e-06	-3.194033220140928719e+01
1.630795869244564346e+04	2.293885403321796730e+02	-4.872569483774807393e-06	-3.193869246670899997e+01
1.630798043157607026e+04	2.291245249330939942e+02	-4.882465803614837486e-06	-3.193705485566520608e+01
1.630800217070649524e+04	2.288560337976028336e+02	-4.892559894571847993e-06	-3.193541935954400657e+01
1.630802390983692203e+04	2.285830357575225094e+02	-4.902854606628553476e-06	-3.193378596965798621e+01
1.630804564896734882e+04	2.283054981540577160e+02	-4.913352902949046928e-06	-3.193215467736566282e+01
1.630806738809777562e+04	2.280233874641882608e+02	-4.924057838599059553e-06	-3.193052547407140906e+01
1.630808912722820060e+04	2.277366699318857854e+02	-4.934972538680660734e-06	-3.192889835122515052e+01
1.630811086635862739e+04	2.274453121963033766e+02	-4.946100176145471730e-06	-3.192727330032196775e+01
1.630813260548905419e+04	2.271492819091373292e+02	-4.957443949554913556e-06	-3.192565031290200395e+01
1.630815434461948098e+04	2.268485483334999060e+02	-4.969007061058177905e-06	-3.192402938055005279e+01
1.630817608374990778e+04	2.265430829168866467e+02	-4.980792694857037034e-06	-3.192241049489543414e+01
1.630819782288033275e+04	2.262328598311571568e+02	-4.992803996422228524e-06	-3.192079364761154281e+01
1.630821956201075955e+04	2.259178564728574372e+02	-5.005044052718907849e-06	-3.191917883041575621e+01
1.630824130114118634e+04	2.255980539177169533e+02	-5.017515873688464261e-06	-3.191756603506909329e+01
1.630826304027161314e+04	2.252734373237287002e+02	-5.030222375220801253e-06	-3.191595525337602979e+01
1.630828477940203811e+04	2.249439962778590996e+02	-5.043166363835712679e-06	-3.191434647718410034e+01
1.630830651853246491e+04	2.246097250821433136e+02	-5.056350523273626134e-06	-3.191273969838383451e+01
1.630832825766289170e+04	2.242706229756705909e+02	-5.069777403175835167e-06	-3.191113490890830207e+01
1.630834999679331850e+04	2.239266942897683919e+02	-5.083449410011456741e-06	-3.190953210073305968e+01
1.630837173592374347e+04	2.235779485345181854e+02	-5.097368800384271747e-06	-3.190793126587570683e+01
1.630839347505417027e+04	2.232244004155916173e+02	-5.111537676826499999e-06	-3.190633239639582897e+01
1.630841521418459706e+04	2.228660697812619560e+02	-5.125957986159050324e-06	-3.190473548439461737e+01
1.630843695331502386e+04	2.225029815003083513e+02	-5.140631520469573416e-06	-3.190314052201470929e+01
1.630845869244544883e+04	2.221351652723899690e+02	-5.155559920730258984e-06	-3.190154750143983975e+01
1.630848043157587563e+04	2.217626553733055346e+02	-5.170744683047488781e-06	-3.189995641489476341e+01
1.630850217070630242e+04	2.213854903383572150e+02	-5.186187167505700832e-06	-3.189836725464485312e+01
1.630852390983672922e+04	2.210037125878154427e+02	-5.201888609537564151e-06	-3.189678001299594712e+01
1.630854564896715419e+04	2.206173679991875929e+02	-5.217850133723544755e-06	-3.189519468229415011e+01
1.630856738809758099e+04	2.202265054316624173e+02	-5.234072769895006566e-06	-3.189361125492550286e+01
1.630858912722800778e+04	2.198311762087002705e+02	-5.250557471387147167e-06	-3.189202972331582941e+01
