# time(us)	tip(nm)	Fts(nN)	Xb(nm)
1.630437173592529507e+04	2.760097200032791989e+02	-4.362642912149582819e-06	-2.785036224864210763e-01
1.630439347505572005e+04	2.767208018130334608e+02	-4.340270735364063244e-06	-2.784571077726790134e-01
1.630441521418614684e+04	2.774273779159888704e+02	-4.318210361612828555e-06	-2.784107685572957958e-01
1.630443695331657364e+04	2.781294802945066067e+02	-4.296455853162682966e-06	-2.783646036704021109e-01
1.630445869244700043e+04	2.788271386301214534e+02	-4.275001477715177766e-06	-2.783186119536280034e-01
1.630448043157742541e+04	2.795203798060335316e+02	-4.253841717175186174e-06	-2.782727922599403936e-01
1.630450217070785220e+04	2.802092274471241922e+02	-4.232971274885808151e-06	-2.782271434534858146e-01
1.630452390983827900e+04	2.808937015027989332e+02	-4.212385081252862297e-06	-2.781816644094344260e-01
1.630454564896870579e+04	2.815738178774273592e+02	-4.192078297701879033e-06	-2.781363540138271362e-01
1.630456738809913077e+04	2.822495881125753385e+02	-4.172046318930606853e-06	-2.780912111634256667e-01
1.630458912722955756e+04	2.829210191245815622e+02	-4.152284773440142637e-06	-2.780462347655646704e-01
1.630461086635998436e+04	2.835881130003662633e+02	-4.132789522348032660e-06	-2.780014237380078468e-01
1.630463260549041115e+04	2.842508668536351593e+02	-4.113556656506701240e-06	-2.779567770088041123e-01
1.630465434462083795e+04	2.849092727429136858e+02	-4.094582491969875440e-06	-2.779122935161493779e-01
1.630467608375126292e+04	2.855633176520914844e+02	-4.075863563868347980e-06	-2.778679722082478820e-01
1.630469782288168972e+04	2.862129835333918777e+02	-4.057396618774202212e-06	-2.778238120431778535e-01
1.630471956201211651e+04	2.868582474119288577e+02	-4.039178605649087711e-06	-2.777798119887588402e-01
1.630474130114254331e+04	2.874990815502556529e+02	-4.021206665487505226e-06	-2.777359710224212019e-01
1.630476304027296828e+04	2.881354536705892428e+02	-4.003478119779699558e-06	-2.776922881310779356e-01
1.630478477940339508e+04	2.887673272316908424e+02	-3.985990457930868076e-06	-2.776487623109991087e-01
1.630480651853382187e+04	2.893946617567200406e+02	-3.968741323783792497e-06	-2.776053925676879031e-01
1.630482825766424867e+04	2.900174132077671061e+02	-3.951728501400287176e-06	-2.775621779157592117e-01
1.630484999679467364e+04	2.906355344022007898e+02	-3.934949900263651256e-06	-2.775191173788200683e-01
1.630487173592510044e+04	2.912489754654688454e+02	-3.918403540068559024e-06	-2.774762099893522960e-01
1.630489347505552723e+04	2.918576843145476687e+02	-3.902087535267684092e-06	-2.774334547885968227e-01
1.630491521418595403e+04	2.924616071658744545e+02	-3.886000079544606303e-06	-2.773908508264404382e-01
1.630493695331637900e+04	2.930606890613046858e+02	-3.870139430381364410e-06	-2.773483971613042165e-01
1.630495869244680580e+04	2.936548744054249482e+02	-3.854503893885567591e-06	-2.773060928600337149e-01
1.630498043157723259e+04	2.942441075074253263e+02	-3.839091810036859435e-06	-2.772639369977917823e-01
1.630500217070765939e+04	2.948283331206859543e+02	-3.823901538505600110e-06	-2.772219286579514219e-01
1.630502390983808436e+04	2.954074969732757268e+02	-3.808931445188134596e-06	-2.771800669319927635e-01
1.630504564896851116e+04	2.959815462826798012e+02	-3.794179889592831398e-06	-2.771383509193997008e-01
1.630506738809893795e+04	2.965504302482783032e+02	-3.779645213199845346e-06	-2.770967797275599720e-01
1.630508912722936475e+04	2.971141005153792776e+02	-3.765325728904797546e-06	-2.770553524716655169e-01
1.630511086635978972e+04	2.976725116049726694e+02	-3.751219711642933377e-06	-2.770140682746149996e-01
1.630513260549021652e+04	2.982256213037987891e+02	-3.737325390275776750e-06	-2.769729262669188286e-01
1.630515434462064331e+04	2.987733910098214665e+02	-3.723640940807098393e-06	-2.769319255866037333e-01
1.630517608375107011e+04	2.993157860287582253e+02	-3.710164480979084930e-06	-2.768910653791213372e-01
1.630519782288149690e+04	2.998527758179232023e+02	-3.696894066283676407e-06	-2.768503447972557874e-01
1.630521956201192188e+04	3.003843341742990560e+02	-3.683827687407503263e-06	-2.768097630010353805e-01
1.630524130114234868e+04	3.009104393644474840e+02	-3.670963269112798256e-06	-2.767693191576436340e-01
1.630526304027277547e+04	3.014310741945886889e+02	-3.658298670540306463e-06	-2.767290124413323005e-01
1.630528477940320226e+04	3.019462260199257457e+02	-3.645831686904658986e-06	-2.766888420333371568e-01
1.630530651853362724e+04	3.024558866930428849e+02	-3.633560052537256657e-06	-2.766488071217928502e-01
1.630532825766405404e+04	3.029600524519634064e+02	-3.621481445217121545e-06	-2.766089069016508528e-01
1.630534999679448083e+04	3.034587237492037843e+02	-3.609593491716438177e-06	-2.765691405745987486e-01
1.630537173592490763e+04	3.039519050238915838e+02	-3.597893774474537468e-06	-2.765295073489791311e-01
1.630539347505533260e+04	3.044396044197234232e+02	-3.586379839302336878e-06	-2.764900064397119439e-01
1.630541521418575940e+04	3.049218334522140594e+02	-3.575049204008540473e-06	-2.764506370682165426e-01
1.630543695331618619e+04	3.053986066293138606e+02	-3.563899367829722363e-06	-2.764113984623358666e-01
1.630545869244661299e+04	3.058699410300603176e+02	-3.552927821538238956e-06	-2.763722898562612773e-01
1.630548043157703796e+04	3.063358558464476005e+02	-3.542132058095572814e-06	-2.763333104904587278e-01
1.630550217070746476e+04	3.067963718941618367e+02	-3.531509583713597854e-06	-2.762944596115964879e-01
1.630552390983789155e+04	3.072515110982202486e+02	-3.521057929182891576e-06	-2.762557364724732567e-01
1.630554564896831835e+04	3.077012959598686734e+02	-3.510774661325287125e-06	-2.762171403319481633e-01
1.630556738809874332e+04	3.081457490113361928e+02	-3.500657394427712282e-06	-2.761786704548715443e-01
1.630558912722917012e+04	3.085848922651989596e+02	-3.490703801515650379e-06	-2.761403261120162766e-01
1.630561086635959691e+04	3.090187466651836985e+02	-3.480911625327597746e-06	-2.761021065800113305e-01
1.630563260549002371e+04	3.094473315452382280e+02	-3.471278688856332837e-06	-2.760640111412753783e-01
1.630565434462044868e+04	3.098706641035962548e+02	-3.461802905328894309e-06	-2.760260390839521238e-01
1.630567608375087548e+04	3.102887588984028753e+02	-3.452482287504569262e-06	-2.759881897018454100e-01
1.630569782288130227e+04	3.107016273711998338e+02	-3.443314956179019320e-06	-2.759504622943569352e-01
1.630571956201172907e+04	3.111092774042512019e+02	-3.434299147792686325e-06	-2.759128561664243584e-01
1.630574130114215404e+04	3.115117129172807608e+02	-3.425433221052730315e-06	-2.758753706284589602e-01
1.630576304027258084e+04	3.119089335087168706e+02	-3.416715662489999347e-06	-2.758380049962871339e-01
1.630578477940300763e+04	3.123009341460146970e+02	-3.408145090885429704e-06	-2.758007585910892678e-01
1.630580651853343443e+04	3.126877049090268201e+02	-3.399720260513972017e-06	-2.757636307393427910e-01
1.630582825766386122e+04	3.130692307897611499e+02	-3.391440063168319002e-06	-2.757266207727641083e-01
1.630584999679428620e+04	3.134454915511784634e+02	-3.383303528939295965e-06	-2.756897280282515905e-01
1.630587173592471299e+04	3.138164616469727548e+02	-3.375309825744537792e-06	-2.756529518478303964e-01
1.630589347505513979e+04	3.141821102035430044e+02	-3.367458257611630245e-06	-2.756162915785970724e-01
1.630591521418556658e+04	3.145424010646096349e+02	-3.359748261736621187e-06	-2.755797465726654294e-01
1.630593695331599156e+04	3.148972928981725659e+02	-3.352179404352925277e-06	-2.755433161871133074e-01
1.630595869244641835e+04	3.152467393647559106e+02	-3.344751375459298158e-06	-2.755069997839298956e-01
1.630598043157684515e+04	3.155906893451409587e+02	-3.337463982468585635e-06	-2.754707967299637184e-01
1.630600217070727194e+04	3.159290872250715552e+02	-3.330317142851126487e-06	-2.754347063968722864e-01
1.630602390983769692e+04	3.162618732337256233e+02	-3.323310875857787482e-06	-2.753987281610708604e-01
1.630604564896812371e+04	3.165889838321002117e+02	-3.316445293417823141e-06	-2.753628614036833788e-01
1.630606738809855051e+04	3.169103521468447866e+02	-3.309720590315633053e-06	-2.753271055104936083e-01
1.630608912722897730e+04	3.172259084445440749e+02	-3.303137033757978610e-06	-2.752914598718968486e-01
1.630611086635940228e+04	3.175355806409473871e+02	-3.296694952449578862e-06	-2.752559238828525268e-01
1.630613260548982907e+04	3.178392948392314565e+02	-3.290394725299831564e-06	-2.752204969428374559e-01
1.630615434462025587e+04	3.181369758910284418e+02	-3.284236769886595009e-06	-2.751851784557995395e-01
1.630617608375068266e+04	3.184285479736803381e+02	-3.278221530805034698e-06	-2.751499678301124741e-01
1.630619782288110764e+04	3.187139351769851032e+02	-3.272349468029781545e-06	-2.751148644785308406e-01
1.630621956201153444e+04	3.189930620925889002e+02	-3.266621045417648008e-06	-2.750798678181459178e-01
1.630624130114196123e+04	3.192658543991507258e+02	-3.261036719475575218e-06	-2.750449772703422724e-01
1.630626304027238803e+04	3.195322394364589513e+02	-3.255596928514664083e-06	-2.750101922607546823e-01
1.630628477940281300e+04	3.197921467618164684e+02	-3.250302082305849373e-06	-2.749755122192253931e-01
1.630630651853323980e+04	3.200455086822309454e+02	-3.245152552346387888e-06	-2.749409365797633731e-01
1.630632825766366659e+04	3.202922607562434223e+02	-3.240148662838664503e-06	-2.749064647805016803e-01
1.630634999679409339e+04	3.205323422596001137e+02	-3.235290682474154691e-06	-2.748720962636583831e-01
1.630637173592452018e+04	3.207656966094110658e+02	-3.230578817105853453e-06	-2.748378304754950374e-01
1.630639347505494516e+04	3.209922717419505034e+02	-3.226013203381911743e-06	-2.748036668662785509e-01
1.630641521418537195e+04	3.212120204398195824e+02	-3.221593903402098194e-06	-2.747696048902408816e-01
1.630643695331579875e+04	3.214249006048020760e+02	-3.217320900447027668e-06	-2.747356440055413462e-01
1.630645869244622554e+04	3.216308754734124022e+02	-3.213194095817837700e-06	-2.747017836742290942e-01
1.630648043157665052e+04	3.218299137728272967e+02	-3.209213306811473555e-06	-2.746680233622044720e-01
1.630650217070707731e+04	3.220219898156203726e+02	-3.205378265844104416e-06	-2.746343625391830523e-01
1.630652390983750411e+04	3.222070835324607856e+02	-3.201688620722302682e-06	-2.746008006786589406e-01
1.630654564896793090e+04	3.223851804426891476e+02	-3.198143936049072913e-06	-2.745673372578686933e-01
1.630656738809835588e+04	3.225562715634388837e+02	-3.194743695739249158e-06	-2.745339717577562344e-01
1.630658912722878267e+04	3.227203532587141126e+02	-3.191487306606641788e-06	-2.745007036629372732e-01
1.630661086635920947e+04	3.228774270305635810e+02	-3.188374102973675926e-06	-2.744675324616654977e-01
1.630663260548963626e+04	3.230274992551875357e+02	-3.185403352243078457e-06	-2.744344576457978802e-01
1.630665434462006124e+04	3.231705808674840341e+02	-3.182574261360752968e-06	-2.744014787107609821e-01
1.630667608375048803e+04	3.233066869981540776e+02	-3.179885984089501119e-06	-2.743685951555185354e-01
1.630669782288091483e+04	3.234358365680645875e+02	-3.177337629004258111e-06	-2.743358064825377474e-01
1.630671956201134162e+04	3.235580518450734075e+02	-3.174928268112014528e-06	-2.743031121977576592e-01
1.630674130114176660e+04	3.236733579689755516e+02	-3.172656945992761278e-06	-2.742705118105566164e-01
1.630676304027219339e+04	3.237817824506007582e+02	-3.170522689352386886e-06	-2.742380048337215159e-01
1.630678477940262019e+04	3.238833546514047157e+02	-3.168524516874031087e-06	-2.742055907834156092e-01
1.630680651853304698e+04	3.239781052501193130e+02	-3.166661449251400567e-06	-2.741732691791486376e-01
1.630682825766347196e+04	3.240660657031735354e+02	-3.164932519285780324e-06	-2.741410395437464675e-01
1.630684999679389875e+04	3.241472677056611360e+02	-3.163336781927998046e-06	-2.741089014033203930e-01
1.630687173592432555e+04	3.242217426596120049e+02	-3.161873324147524304e-06	-2.740768542872383806e-01
1.630689347505475234e+04	3.242895211562250211e+02	-3.160541274513001341e-06	-2.740448977280953713e-01
1.630691521418517732e+04	3.243506324785288371e+02	-3.159339812372136275e-06	-2.740130312616847474e-01
1.630693695331560411e+04	3.244051041306850607e+02	-3.158268176523599423e-06	-2.739812544269694672e-01
1.630695869244603091e+04	3.244529613998013247e+02	-3.157325673279575602e-06	-2.739495667660540312e-01
1.630698043157645770e+04	3.244942269557153054e+02	-3.156511683824839311e-06	-2.739179678241571159e-01
1.630700217070688450e+04	3.245289204937312206e+02	-3.155825670786465935e-06	-2.738864571495834288e-01
1.630702390983730947e+04	3.245570584247531087e+02	-3.155267183937581360e-06	-2.738550342936970639e-01
1.630704564896773627e+04	3.245786536166694418e+02	-3.154835864968571935e-06	-2.738236988108946335e-01
1.630706738809816306e+04	3.245937151901980542e+02	-3.154531451270289365e-06	-2.737924502585785125e-01
1.630708912722858986e+04	3.246022483717284217e+02	-3.154353778685176458e-06	-2.737612881971312473e-01
1.630711086635901484e+04	3.246042544049832941e+02	-3.154302783194436472e-06	-2.737302121898888552e-01
1.630713260548944163e+04	3.245997305225929495e+02	-3.154378501521773641e-06	-2.736992218031162327e-01
1.630715434461986843e+04	3.245886699779308628e+02	-3.154581070646889212e-06	-2.736683166059813987e-01
1.630717608375029522e+04	3.245710621368089051e+02	-3.154910726234715594e-06	-2.736374961705304587e-01
1.630719782288072020e+04	3.245468926278854269e+02	-3.155367799999052995e-06	-2.736067600716633463e-01
1.630721956201114699e+04	3.245161435499131812e+02	-3.155952716031684054e-06	-2.735761078871093988e-01
1.630724130114157379e+04	3.244787937332444585e+02	-3.156665986140145684e-06	-2.735455391974029316e-01
1.630726304027200058e+04	3.244348190523381277e+02	-3.157508204248925571e-06	-2.735150535858598686e-01
1.630728477940242556e+04	3.243841927853752622e+02	-3.158480039929764805e-06	-2.734846506385542053e-01
1.630730651853285235e+04	3.243268860165090359e+02	-3.159582231136826969e-06	-2.734543299442943054e-01
1.630732825766327915e+04	3.242628680757327970e+02	-3.160815576231970186e-06	-2.734240910946004188e-01
1.630734999679370594e+04	3.241921070108903677e+02	-3.162180925393351649e-06	-2.733939336836820333e-01
1.630737173592413092e+04	3.241145700859425460e+02	-3.163679171507950651e-06	-2.733638573084151147e-01
1.630739347505455771e+04	3.240302242992738115e+02	-3.165311240654647318e-06	-2.733338615683199024e-01
1.630741521418498451e+04	3.239390369155691474e+02	-3.167078082289190639e-06	-2.733039460655390940e-01
1.630743695331541130e+04	3.238409760046134807e+02	-3.168980659246041366e-06	-2.732741104048162506e-01
1.630745869244583628e+04	3.237360109802754664e+02	-3.171019937674209862e-06	-2.732443541934740927e-01
1.630748043157626307e+04	3.236241131329221048e+02	-3.173196877025179285e-06	-2.732146770413935166e-01
1.630750217070668987e+04	3.235052561485811111e+02	-3.175512420210641505e-06	-2.731850785609926668e-01
1.630752390983711666e+04	3.233794166083260393e+02	-3.177967484045930044e-06	-2.731555583672058418e-01
1.630754564896754346e+04	3.232465744615872154e+02	-3.180562950092130663e-06	-2.731261160774633434e-01
1.630756738809796843e+04	3.231067134674019599e+02	-3.183299656005561300e-06	-2.730967513116707157e-01
1.630758912722839523e+04	3.229598215980066129e+02	-3.186178387497818348e-06	-2.730674636921894272e-01
1.630761086635882202e+04	3.228058913996147794e+02	-3.189199871003071717e-06	-2.730382528438163869e-01
1.630763260548924882e+04	3.226449203057530326e+02	-3.192364767141575536e-06	-2.730091183937644606e-01
1.630765434461967379e+04	3.224769108990871587e+02	-3.195673665059760538e-06	-2.729800599716430409e-01
1.630767608375010059e+04	3.223018711183024720e+02	-3.199127077717728568e-06	-2.729510772094390636e-01
1.630769782288052738e+04	3.221198144072600371e+02	-3.202725438184674789e-06	-2.729221697414977443e-01
1.630771956201095418e+04	3.219307598043520784e+02	-3.206469096991791138e-06	-2.728933372045039274e-01
1.630774130114137915e+04	3.217347319707027395e+02	-3.210358320580594289e-06	-2.728645792374632117e-01
1.630776304027180595e+04	3.215317611566008509e+02	-3.214393290872687559e-06	-2.728358954816838544e-01
1.630778477940223274e+04	3.213218831063006178e+02	-3.218574105974568967e-06	-2.728072855807585073e-01
1.630780651853265954e+04	3.211051389020749980e+02	-3.222900782018549352e-06	-2.727787491805459541e-01
1.630782825766308451e+04	3.208815747491387924e+02	-3.227373256128276978e-06	-2.727502859291539017e-01
1.630784999679351131e+04	3.206512417037782825e+02	-3.231991390484851014e-06	-2.727218954769200510e-01
1.630787173592393810e+04	3.204141953477160882e+02	-3.236754977456945182e-06	-2.726935774763962761e-01
1.630789347505436490e+04	3.201704954123844686e+02	-3.241663745746597191e-06	-2.726653315823300838e-01
1.630791521418478987e+04	3.199202053573952753e+02	-3.246717367490508497e-06	-2.726371574516481822e-01
1.630793695331521667e+04	3.196633919080478563e+02	-3.251915466245712964e-06	-2.726090547434389944e-01
1.630795869244564346e+04	3.194001245572100629e+02	-3.257257625778276371e-06	-2.725810231189365052e-01
1.630798043157607026e+04	3.191304750373460024e+02	-3.262743399564008429e-06	-2.725530622415034410e-01
1.630800217070649524e+04	3.188545167688178026e+02	-3.268372320901753269e-06	-2.725251717766142834e-01
1.630802390983692203e+04	3.185723242908848079e+02	-3.274143913532204851e-06	-2.724973513918404477e-01
1.630804564896734882e+04	3.182839726820254214e+02	-3.280057702648814777e-06	-2.724696007568322420e-01
1.630806738809777562e+04	3.179895369763411850e+02	-3.286113226182239653e-06	-2.724419195433048224e-01
1.630808912722820060e+04	3.176890915828453785e+02	-3.292310046235798759e-06	-2.724143074250210406e-01
1.630811086635862739e+04	3.173827097144082927e+02	-3.298647760546991948e-06	-2.723867640777766219e-01
1.630813260548905419e+04	3.170704628330036030e+02	-3.305126013848945276e-06	-2.723592891793844561e-01
1.630815434461948098e+04	3.167524201177151895e+02	-3.311744509005999937e-06	-2.723318824096591650e-01
1.630817608374990778e+04	3.164286479616723682e+02	-3.318503017799439763e-06	-2.723045434504021145e-01
1.630819782288033275e+04	3.160992095037412355e+02	-3.325401391242574595e-06	-2.722772719853862600e-01
1.630821956201075955e+04	3.157641642003691231e+02	-3.332439569309071654e-06	-2.722500677003417691e-01
1.630824130114118634e+04	3.154235674424990066e+02	-3.339617589964401994e-06	-2.722229302829403119e-01
1.630826304027161314e+04	3.150774702219161441e+02	-3.346935597397831835e-06	-2.721958594227817385e-01
1.630828477940203811e+04	3.147259188507941872e+02	-3.354393849360855565e-06	-2.721688548113787021e-01
1.630830651853246491e+04	3.143689547375605002e+02	-3.361992723527990075e-06	-2.721419161421423927e-01
1.630832825766289170e+04	3.140066142215167133e+02	-3.369732722806676923e-06	-2.721150431103692702e-01
1.630834999679331850e+04	3.136389284679453340e+02	-3.377614479534831607e-06	-2.720882354132260761e-01
1.630837173592374347e+04	3.132659234246874576e+02	-3.385638758517459649e-06	-2.720614927497363444e-01
1.630839347505417027e+04	3.128876198404460069e+02	-3.393806458866962722e-06	-2.720348148207664130e-01
1.630841521418459706e+04	3.125040333443146210e+02	-3.402118614625649850e-06	-2.720082013290125444e-01
1.630843695331502386e+04	3.121151745852967565e+02	-3.410576394163181036e-06	-2.719816519789862164e-01
1.630845869244544883e+04	3.117210494298502681e+02	-3.419181098356132946e-06	-2.719551664770019084e-01
1.630848043157587563e+04	3.113216592147980464e+02	-3.427934157571224153e-06	-2.719287445311630025e-01
1.630850217070630242e+04	3.109170010522761345e+02	-3.436837127487926940e-06	-2.719023858513492931e-01
1.630852390983672922e+04	3.105070681827672843e+02	-3.445891683810188197e-06	-2.718760901492034421e-01
1.630854564896715419e+04	3.100918503716870305e+02	-3.455099615930297710e-06	-2.718498571381186557e-01
1.630856738809758099e+04	3.096713343444735642e+02	-3.464462819620723475e-06	-2.718236865332253061e-01
1.630858912722800778e+04	3.092455042546708910e+02	-3.473983288841530673e-06	-2.717975780513786077e-01
