# time(us)	tip(nm)	Fts(nN)	Xb(nm)
1.630437173592529507e+04	8.350276316927302389e+01	-4.717318046882926978e-05	-3.640655175062160742e-01
1.630439347505572005e+04	8.356544327119733850e+01	-4.710276642183628488e-05	-3.640207732868059320e-01
1.630441521418614684e+04	8.362638899787108926e+01	-4.703444535219968210e-05	-3.639761633278967845e-01
1.630443695331657364e+04	8.368557839252908082e+01	-4.696822850533965841e-05	-3.639316869062365623e-01
1.630445869244700043e+04	8.374298818175552128e+01	-4.690412882958794490e-05	-3.638873433038579686e-01
1.630448043157742541e+04	8.379859383978390497e+01	-4.684216090361958718e-05	-3.638431318080257992e-01
1.630450217070785220e+04	8.385236967319262646e+01	-4.678234084368266469e-05	-3.637990517111847066e-01
1.630452390983827900e+04	8.390428892525852689e+01	-4.672468619163268496e-05	-3.637551023109092396e-01
1.630454564896870579e+04	8.395432389898351744e+01	-4.666921578499782429e-05	-3.637112829098533839e-01
1.630456738809913077e+04	8.400244609757295677e+01	-4.661594961050515912e-05	-3.636675928157005466e-01
1.630458912722955756e+04	8.404862638092357940e+01	-4.656490864268405378e-05	-3.636240313411155389e-01
1.630461086635998436e+04	8.409283513647615393e+01	-4.651611466932643613e-05	-3.635805978036951713e-01
1.630463260549041115e+04	8.413504246260225727e+01	-4.646959010572819651e-05	-3.635372915259223459e-01
1.630465434462083795e+04	8.417521836253354195e+01	-4.642535779975652847e-05	-3.634941118351178724e-01
1.630467608375126292e+04	8.421333294670309044e+01	-4.638344082988205799e-05	-3.634510580633945609e-01
1.630469782288168972e+04	8.424935664125737844e+01	-4.634386229838720128e-05	-3.634081295476113138e-01
1.630471956201211651e+04	8.428326040040977318e+01	-4.630664512200682008e-05	-3.633653256293294942e-01
1.630474130114254331e+04	8.431501592025183811e+01	-4.627181182227753842e-05	-3.633226456547661853e-01
1.630476304027296828e+04	8.434459585160757911e+01	-4.623938431786733420e-05	-3.632800889747520579e-01
1.630478477940339508e+04	8.437197400951959025e+01	-4.620938372112632291e-05	-3.632376549446873493e-01
1.630480651853382187e+04	8.439712557698288720e+01	-4.618183014104584026e-05	-3.631953429244998421e-01
1.630482825766424867e+04	8.442002730060335125e+01	-4.615674249473651457e-05	-3.631531522786015098e-01
1.630484999679467364e+04	8.444065767594371152e+01	-4.613413832943603622e-05	-3.631110823758481598e-01
1.630487173592510044e+04	8.445899712043323859e+01	-4.611403365693839417e-05	-3.630691325894971899e-01
1.630489347505552723e+04	8.447502813185845127e+01	-4.609644280219715848e-05	-3.630273022971682306e-01
1.630491521418595403e+04	8.448873543061515079e+01	-4.608137826769962873e-05	-3.629855908808021780e-01
1.630493695331637900e+04	8.450010608408702240e+01	-4.606885061503665919e-05	-3.629439977266220030e-01
1.630495869244680580e+04	8.450912961172278415e+01	-4.605886836490821035e-05	-3.629025222250937266e-01
1.630498043157723259e+04	8.451579806960582175e+01	-4.605143791660596905e-05	-3.628611637708881732e-01
1.630500217070765939e+04	8.452010611354759817e+01	-4.604656348780864536e-05	-3.628199217628421125e-01
1.630502390983808436e+04	8.452205103998495872e+01	-4.604424707531004217e-05	-3.627787956039217887e-01
1.630504564896851116e+04	8.452163280421993363e+01	-4.604448843707885673e-05	-3.627377847011849510e-01
1.630506738809893795e+04	8.451885401580238977e+01	-4.604728509582590903e-05	-3.626968884657448822e-01
1.630508912722936475e+04	8.451371991112270621e+01	-4.605263236402758220e-05	-3.626561063127332618e-01
1.630511086635978972e+04	8.450623830354517452e+01	-4.606052339013100218e-05	-3.626154376612658603e-01
1.630513260549021652e+04	8.449641951167446052e+01	-4.607094922544118708e-05	-3.625748819344058460e-01
1.630515434462064331e+04	8.448427626659960765e+01	-4.608389891097576486e-05	-3.625344385591296459e-01
1.630517608375107011e+04	8.446982359920335171e+01	-4.609935958336091049e-05	-3.624941069662929172e-01
1.630519782288149690e+04	8.445307870885537227e+01	-4.611731659863883820e-05	-3.624538865905952423e-01
1.630521956201192188e+04	8.443406081501932192e+01	-4.613775367266997033e-05	-3.624137768705477658e-01
1.630524130114234868e+04	8.441279099350073523e+01	-4.616065303663125928e-05	-3.623737772484394992e-01
1.630526304027277547e+04	8.438929199923545355e+01	-4.618599560595104740e-05	-3.623338871703046804e-01
1.630528477940320226e+04	8.436358807767024359e+01	-4.621376116087322166e-05	-3.622941060858897999e-01
1.630530651853362724e+04	8.433570476691208739e+01	-4.624392853671516570e-05	-3.622544334486222928e-01
1.630532825766405404e+04	8.430566869292293575e+01	-4.627647582177490737e-05	-3.622148687155787861e-01
1.630534999679448083e+04	8.427350736010895105e+01	-4.631138056075516114e-05	-3.621754113474535131e-01
1.630537173592490763e+04	8.423924893969511629e+01	-4.634861996150706892e-05	-3.621360608085270050e-01
1.630539347505533260e+04	8.420292205829343857e+01	-4.638817110285314214e-05	-3.620968165666374472e-01
1.630541521418575940e+04	8.416455558905533962e+01	-4.643001114123210293e-05	-3.620576780931480387e-01
1.630543695331618619e+04	8.412417844775751519e+01	-4.647411751391501727e-05	-3.620186448629182374e-01
1.630545869244661299e+04	8.408181939609742983e+01	-4.652046813657333119e-05	-3.619797163542753937e-01
1.630548043157703796e+04	8.403750685437601931e+01	-4.656904159303676166e-05	-3.619408920489832759e-01
1.630550217070746476e+04	8.399126872561880930e+01	-4.661981731516190170e-05	-3.619021714322151473e-01
1.630552390983789155e+04	8.394313223303763039e+01	-4.667277575083581155e-05	-3.618635539925246780e-01
1.630554564896831835e+04	8.389312377256035802e+01	-4.672789851827100502e-05	-3.618250392218176903e-01
1.630556738809874332e+04	8.384126878196433097e+01	-4.678516854489870702e-05	-3.617866266153241250e-01
1.630558912722917012e+04	8.378759162793532766e+01	-4.684457018933922624e-05	-3.617483156715709525e-01
1.630561086635959691e+04	8.373211551214762949e+01	-4.690608934512076014e-05	-3.617101058923544166e-01
1.630563260549002371e+04	8.367486239721934282e+01	-4.696971352502532298e-05	-3.616719967827141113e-01
1.630565434462044868e+04	8.361585295314678490e+01	-4.703543192516440992e-05	-3.616339878509053363e-01
1.630567608375087548e+04	8.355510652456456455e+01	-4.710323546812107513e-05	-3.615960786083730061e-01
1.630569782288130227e+04	8.349264111891720574e+01	-4.717311682474041682e-05	-3.615582685697258936e-01
1.630571956201172907e+04	8.342847341536513284e+01	-4.724507041440219985e-05	-3.615205572527108169e-01
1.630574130114215404e+04	8.336261879399124552e+01	-4.731909238386225735e-05	-3.614829441781872710e-01
1.630576304027258084e+04	8.329509138461942541e+01	-4.739518056500700702e-05	-3.614454288701016704e-01
1.630578477940300763e+04	8.322590413431338163e+01	-4.747333441211617382e-05	-3.614080108554631465e-01
1.630580651853343443e+04	8.315506889239146915e+01	-4.755355491947861038e-05	-3.613706896643187338e-01
1.630582825766386122e+04	8.308259651157676728e+01	-4.763584452044257835e-05	-3.613334648297283902e-01
1.630584999679428620e+04	8.300849696370025299e+01	-4.772020696921173142e-05	-3.612963358877423481e-01
1.630587173592471299e+04	8.293277946819718238e+01	-4.780664720690970423e-05	-3.612593023773750800e-01
1.630589347505513979e+04	8.285545263147753303e+01	-4.789517121363374644e-05	-3.612223638405835935e-01
1.630591521418556658e+04	8.277652459511716643e+01	-4.798578584839624631e-05	-3.611855198222436725e-01
1.630593695331599156e+04	8.269600319070971750e+01	-4.807849867900838869e-05	-3.611487698701259519e-01
1.630595869244641835e+04	8.261389609913676679e+01	-4.817331780409523598e-05	-3.611121135348737687e-01
1.630598043157684515e+04	8.253021101196117115e+01	-4.827025166953871469e-05	-3.610755503699804025e-01
1.630600217070727194e+04	8.244495579262297724e+01	-4.836930888173159070e-05	-3.610390799317667598e-01
1.630602390983769692e+04	8.235813863512281330e+01	-4.847049802007844579e-05	-3.610027017793587256e-01
1.630604564896812371e+04	8.226976821790958638e+01	-4.857382745121077103e-05	-3.609664154746665132e-01
1.630606738809855051e+04	8.217985385075168381e+01	-4.867930514738392285e-05	-3.609302205823611276e-01
1.630608912722897730e+04	8.208840561245861522e+01	-4.878693851149678570e-05	-3.608941166698544367e-01
1.630611086635940228e+04	8.199543447743727143e+01	-4.889673421112143942e-05	-3.608581033072773003e-01
1.630613260548982907e+04	8.190095242920635599e+01	-4.900869802384598162e-05	-3.608221800674584201e-01
1.630615434462025587e+04	8.180497255915801702e+01	-4.912283469612846069e-05	-3.607863465259038560e-01
1.630617608375068266e+04	8.170750914903953799e+01	-4.923914781772394995e-05	-3.607506022607760987e-01
1.630619782288110764e+04	8.160857773583464336e+01	-4.935763971358967918e-05	-3.607149468528737524e-01
1.630621956201153444e+04	8.150819515794378844e+01	-4.947831135499259275e-05	-3.606793798856117172e-01
1.630624130114196123e+04	8.140637958179743805e+01	-4.960116229134315345e-05	-3.606439009450002064e-01
1.630626304027238803e+04	8.130315050828431822e+01	-4.972619060405702421e-05	-3.606085096196265383e-01
1.630628477940281300e+04	8.119852875862868302e+01	-4.985339288351097430e-05	-3.605732055006335424e-01
1.630630651853323980e+04	8.109253643961049818e+01	-4.998276422990643959e-05	-3.605379881817023513e-01
1.630632825766366659e+04	8.098519688828311303e+01	-5.011429827859035282e-05	-3.605028572590311953e-01
1.630634999679409339e+04	8.087653459660151611e+01	-5.024798725011054879e-05	-3.604678123313169724e-01
1.630637173592452018e+04	8.076657511662841671e+01	-5.038382202500296637e-05	-3.604328529997380404e-01
1.630639347505494516e+04	8.065534494723297598e+01	-5.052179224302391641e-05	-3.603979788679327334e-01
1.630641521418537195e+04	8.054287140343109286e+01	-5.066188642625688807e-05	-3.603631895419833198e-01
1.630643695331579875e+04	8.042918246973944463e+01	-5.080409212524282872e-05	-3.603284846303956845e-01
1.630645869244622554e+04	8.031430663912061618e+01	-5.094839608700375220e-05	-3.602938637440832315e-01
1.630648043157665052e+04	8.019827273928211753e+01	-5.109478444356495102e-05	-3.602593264963475650e-01
1.630650217070707731e+04	8.008110974825882522e+01	-5.124324291932476897e-05	-3.602248725028606158e-01
1.630652390983750411e+04	7.996284660134912770e+01	-5.139375705537894447e-05	-3.601905013816483203e-01
1.630654564896793090e+04	7.984351199159266343e+01	-5.154631244868638725e-05	-3.601562127530718027e-01
1.630656738809835588e+04	7.972313416606684200e+01	-5.170089500376071577e-05	-3.601220062398107769e-01
1.630658912722878267e+04	7.960174072034412518e+01	-5.185749119439344288e-05	-3.600878814668463934e-01
1.630661086635920947e+04	7.947935839348372156e+01	-5.201608833276752402e-05	-3.600538380614443645e-01
1.630663260548963626e+04	7.935601286593926318e+01	-5.217667484319331327e-05	-3.600198756531372002e-01
1.630665434462006124e+04	7.923172856273954778e+01	-5.233924053761127427e-05	-3.599859938737096088e-01
1.630667608375048803e+04	7.910652846424778772e+01	-5.250377688994628387e-05	-3.599521923571799009e-01
1.630669782288091483e+04	7.898043392672444440e+01	-5.267027730637466977e-05	-3.599184707397847793e-01
1.630671956201134162e+04	7.885346451481260033e+01	-5.283873738857456954e-05	-3.598848286599629631e-01
1.630674130114176660e+04	7.872563784793115360e+01	-5.300915518707877740e-05	-3.598512657583393115e-01
1.630676304027219339e+04	7.859696946240481452e+01	-5.318153144192964559e-05	-3.598177816777081706e-01
1.630678477940262019e+04	7.846747269098099764e+01	-5.335586980795263979e-05	-3.597843760630189403e-01
1.630680651853304698e+04	7.833715856118341492e+01	-5.353217706211856991e-05	-3.597510485613591991e-01
1.630682825766347196e+04	7.820603571373665375e+01	-5.371046329064663573e-05	-3.597177988219401046e-01
1.630684999679389875e+04	7.807411034206361933e+01	-5.389074205371743745e-05	-3.596846264960807393e-01
1.630687173592432555e+04	7.794138615361346467e+01	-5.407303052590767728e-05	-3.596515312371929007e-01
1.630689347505475234e+04	7.780786435352449359e+01	-5.425734961072965442e-05	-3.596185127007661131e-01
1.630691521418517732e+04	7.767354365086757184e+01	-5.444372402794903879e-05	-3.595855705443529171e-01
1.630693695331560411e+04	7.753842028745235382e+01	-5.463218237266697763e-05	-3.595527044275535489e-01
1.630695869244603091e+04	7.740248808891649901e+01	-5.482275714547936766e-05	-3.595199140120023951e-01
1.630698043157645770e+04	7.726573853755989774e+01	-5.501548475336165894e-05	-3.594871989613516172e-01
1.630700217070688450e+04	7.712816086613237587e+01	-5.521040548127401331e-05	-3.594545589412592723e-01
1.630702390983730947e+04	7.698974217154125199e+01	-5.540756343482724339e-05	-3.594219936193726594e-01
1.630704564896773627e+04	7.685046754721412299e+01	-5.560700645469456493e-05	-3.593895026653158298e-01
1.630706738809816306e+04	7.671032023263786925e+01	-5.580878600379237834e-05	-3.593570857506744876e-01
1.630708912722858986e+04	7.656928177839706962e+01	-5.601295702858159834e-05	-3.593247425489832225e-01
1.630711086635901484e+04	7.642733222485868794e+01	-5.621957779615169504e-05	-3.592924727357104109e-01
1.630713260548944163e+04	7.628445029249427023e+01	-5.642870970904678268e-05	-3.592602759882457253e-01
1.630715434461986843e+04	7.614061358170260974e+01	-5.664041710006117487e-05	-3.592281519858862016e-01
1.630717608375029522e+04	7.599579877988955445e+01	-5.685476700948036502e-05	-3.591961004098225829e-01
1.630719782288072020e+04	7.584998187348551824e+01	-5.707182894745958709e-05	-3.591641209431262194e-01
1.630721956201114699e+04	7.570313836253144757e+01	-5.729167464441988248e-05	-3.591322132707360781e-01
1.630724130114157379e+04	7.555524347544385932e+01	-5.751437779249298692e-05	-3.591003770794455874e-01
1.630726304027200058e+04	7.540627238157748025e+01	-5.774001378116608134e-05	-3.590686120578890916e-01
1.630728477940242556e+04	7.525620039924095295e+01	-5.796865943035978223e-05	-3.590369178965297503e-01
1.630730651853285235e+04	7.510500319688649995e+01	-5.820039272421652832e-05	-3.590052942876469921e-01
1.630732825766327915e+04	7.495265698528604048e+01	-5.843529254888823674e-05	-3.589737409253229150e-01
1.630734999679370594e+04	7.479913869862636489e+01	-5.867343843757858628e-05	-3.589422575054302400e-01
1.630737173592413092e+04	7.464442616259908903e+01	-5.891491032603291678e-05	-3.589108437256205431e-01
1.630739347505455771e+04	7.448849824772723593e+01	-5.915978832156490756e-05	-3.588794992853104326e-01
1.630741521418498451e+04	7.433133500635841528e+01	-5.940815248857369315e-05	-3.588482238856711137e-01
1.630743695331541130e+04	7.417291779196116863e+01	-5.966008265333398719e-05	-3.588170172296148430e-01
1.630745869244583628e+04	7.401322935958272353e+01	-5.991565823064145884e-05	-3.587858790217837712e-01
1.630748043157626307e+04	7.385225394656301035e+01	-6.017495807466301082e-05	-3.587548089685376751e-01
1.630750217070668987e+04	7.368997733284446383e+01	-6.043806035608644786e-05	-3.587238067779419115e-01
1.630752390983711666e+04	7.352638688047375126e+01	-6.070504246737812044e-05	-3.586928721597564818e-01
1.630754564896754346e+04	7.336147155214717941e+01	-6.097598095765397862e-05	-3.586620048254239856e-01
1.630756738809796843e+04	7.319522190891196090e+01	-6.125095149834846621e-05	-3.586312044880571870e-01
1.630758912722839523e+04	7.302763008739303530e+01	-6.153002888052414075e-05	-3.586004708624292991e-01
1.630761086635882202e+04	7.285868975716745410e+01	-6.181328704431506059e-05	-3.585698036649616061e-01
1.630763260548924882e+04	7.268839605915195534e+01	-6.210079914063911172e-05	-3.585392026137123045e-01
1.630765434461967379e+04	7.251674552610334956e+01	-6.239263762494525628e-05	-3.585086674283652908e-01
1.630767608375010059e+04	7.234373598654921977e+01	-6.268887438240066529e-05	-3.584781978302193917e-01
1.630769782288052738e+04	7.216936645366973835e+01	-6.298958088355279591e-05	-3.584477935421775396e-01
1.630771956201095418e+04	7.199363700083304707e+01	-6.329482836914891762e-05	-3.584174542887349491e-01
1.630774130114137915e+04	7.181654862565036979e+01	-6.360468806244231840e-05	-3.583871797959697347e-01
1.630776304027180595e+04	7.163810310455384922e+01	-6.391923140698258800e-05	-3.583569697915307550e-01
1.630778477940223274e+04	7.145830284001378629e+01	-6.423853032757043645e-05	-3.583268240046281750e-01
1.630780651853265954e+04	7.127715070259930030e+01	-6.456265751175955300e-05	-3.582967421660221419e-01
1.630782825766308451e+04	7.109464987014514747e+01	-6.489168670902021349e-05	-3.582667240080125715e-01
1.630784999679351131e+04	7.091080366632010623e+01	-6.522569304443340580e-05	-3.582367692644287671e-01
1.630787173592393810e+04	7.072561540089269272e+01	-6.556475334357683552e-05	-3.582068776706196500e-01
1.630789347505436490e+04	7.053908821396687756e+01	-6.590894646508316636e-05	-3.581770489634424348e-01
1.630791521418478987e+04	7.035122492640390135e+01	-6.625835363721769612e-05	-3.581472828812533593e-01
1.630793695331521667e+04	7.016202789856690458e+01	-6.661305879471598372e-05	-3.581175791638975814e-01
1.630795869244564346e+04	6.997149889941434253e+01	-6.697314891206960282e-05	-3.580879375526985209e-01
1.630798043157607026e+04	6.977963898783769991e+01	-6.733871432942849212e-05	-3.580583577904489778e-01
1.630800217070649524e+04	6.958644840797886388e+01	-6.770984906731886588e-05	-3.580288396214007518e-01
1.630802390983692203e+04	6.939192650008662611e+01	-6.808665112644822167e-05	-3.579993827912545390e-01
1.630804564896734882e+04	6.919607162827206537e+01	-6.846922276898321678e-05	-3.579699870471510503e-01
1.630806738809777562e+04	6.899888112630830506e+01	-6.885767077784899122e-05	-3.579406521376610750e-01
1.630808912722820060e+04	6.880035126238988141e+01	-6.925210669079916040e-05	-3.579113778127754886e-01
1.630811086635862739e+04	6.860047722352722133e+01	-6.965264700624942918e-05	-3.578821638238967040e-01
1.630813260548905419e+04	6.839925312000113422e+01	-7.005941335814667645e-05	-3.578530099238287354e-01
1.630815434461948098e+04	6.819667201004763513e+01	-7.047253265746376252e-05	-3.578239158667680386e-01
1.630817608374990778e+04	6.799272594468607167e+01	-7.089213719825587399e-05	-3.577948814082942408e-01
1.630819782288033275e+04	6.778740603234675177e+01	-7.131836472659209203e-05	-3.577659063053608701e-01
1.630821956201075955e+04	6.758070252270177036e+01	-7.175135847107393528e-05	-3.577369903162864184e-01
1.630824130114118634e+04	6.737260490885664410e+01	-7.219126713407468109e-05	-3.577081332007457926e-01
1.630826304027161314e+04	6.716310204682504548e+01	-7.263824484326600090e-05	-3.576793347197599893e-01
1.630828477940203811e+04	6.695218229098657048e+01	-7.309245106344271139e-05	-3.576505946356892118e-01
1.630830651853246491e+04	6.673983364402005236e+01	-7.355405046910818898e-05	-3.576219127122219898e-01
1.630832825766289170e+04	6.652604391961619967e+01	-7.402321277872959189e-05	-3.575932887143679073e-01
1.630834999679331850e+04	6.631080091610525074e+01	-7.450011255202046000e-05	-3.575647224084483322e-01
1.630837173592374347e+04	6.609409259898994549e+01	-7.498492895203961246e-05	-3.575362135620877568e-01
1.630839347505417027e+04	6.587590729025274072e+01	-7.547784547431899652e-05	-3.575077619442054710e-01
1.630841521418459706e+04	6.565623386221037094e+01	-7.597904964563227627e-05	-3.574793673250072357e-01
1.630843695331502386e+04	6.543506193362206602e+01	-7.648873269539744029e-05	-3.574510294759760121e-01
1.630845869244544883e+04	6.521238206571574381e+01	-7.700708920305472248e-05	-3.574227481698645237e-01
1.630848043157587563e+04	6.498818595578616453e+01	-7.753431672508594359e-05	-3.573945231806869849e-01
1.630850217070630242e+04	6.476246662603425364e+01	-7.807061540562587598e-05	-3.573663542837097751e-01
1.630852390983672922e+04	6.453521860536393717e+01	-7.861618757486732152e-05	-3.573382412554447218e-01
1.630854564896715419e+04	6.430643810192344745e+01	-7.917123733967415034e-05	-3.573101838736397196e-01
1.630856738809758099e+04	6.407612316428006238e+01	-7.973597017098512838e-05	-3.572821819172714575e-01
1.630858912722800778e+04	6.384427382924207706e+01	-8.031059249271838907e-05	-3.572542351665374261e-01
