# time(us)	tip(nm)	Fts(nN)	Xb(nm)
8.321201719796881662e+03	-1.406241556563675221e+00	3.860362404236201250e+00	-1.406247935253157610e+00
8.321205186962828520e+03	-1.406181844865424635e+00	3.859735183866940034e+00	-1.406187482574662528e+00
8.321208654128775379e+03	-1.406129544212222360e+00	3.859296651062979588e+00	-1.406134440719642331e+00
8.321212121294722238e+03	-1.406084656660130827e+00	3.859046815300685829e+00	-1.406088811773191782e+00
8.321215588460669096e+03	-1.406047183974834303e+00	3.858985680178496303e+00	-1.406050597530037027e+00
8.321219055626615955e+03	-1.406017127631574937e+00	3.859113243417897632e+00	-1.406019799494466982e+00
8.321222522792562813e+03	-1.405994488815099475e+00	3.859429496864412723e+00	-1.405996418880280041e+00
8.321225989958509672e+03	-1.405979268419606187e+00	3.859934426488358383e+00	-1.405980456610730789e+00
8.321229457124456530e+03	-1.405971467048710011e+00	3.860628012385675767e+00	-1.405971913318494249e+00
8.321232924290403389e+03	-1.405971085015420785e+00	3.861510228778729736e+00	-1.405970789345641236e+00
8.321236391456348429e+03	-1.405978122342132153e+00	3.862581044017149079e+00	-1.405977084743627703e+00
8.321239858622295287e+03	-1.405992578760616896e+00	3.863840420578484647e+00	-1.405990799273288072e+00
8.321243325788242146e+03	-1.406014453712032042e+00	3.865288315068795111e+00	-1.406011932404839904e+00
8.321246792954189004e+03	-1.406043746346949064e+00	3.866924678223528922e+00	-1.406040483317912315e+00
8.321250260120135863e+03	-1.406080455525378525e+00	3.868749454908008367e+00	-1.406076450901569963e+00
8.321253727286082722e+03	-1.406124579816815379e+00	3.870762584118091709e+00	-1.406119833754357673e+00
8.321257194452029580e+03	-1.406176117500288036e+00	3.872963998980537337e+00	-1.406170630184347292e+00
8.321260661617976439e+03	-1.406235066564427427e+00	3.875353626753739178e+00	-1.406228838209206744e+00
8.321264128783923297e+03	-1.406301424707537606e+00	3.877931388827997594e+00	-1.406294455556268641e+00
8.321267595949870156e+03	-1.406375189337683462e+00	3.880697200726026086e+00	-1.406367479662617770e+00
8.321271063115817014e+03	-1.406456357572788418e+00	3.883650972103386501e+00	-1.406447907675187459e+00
8.321274530281763873e+03	-1.406544926240745008e+00	3.886792606748826540e+00	-1.406535736450867047e+00
8.321277997447708913e+03	-1.406640891879532784e+00	3.890122002584700756e+00	-1.406630962556622677e+00
8.321281464613655771e+03	-1.406744250737348878e+00	3.893639051667197482e+00	-1.406733582269622751e+00
8.321284931779602630e+03	-1.406854998772748111e+00	3.897343640186628377e+00	-1.406843591577380925e+00
8.321288398945549488e+03	-1.406973131654796205e+00	3.901235648467609174e+00	-1.406960986177902884e+00
8.321291866111496347e+03	-1.407098644763229878e+00	3.905314950969299925e+00	-1.407085761479851538e+00
8.321295333277443206e+03	-1.407231533188639583e+00	3.909581416285724309e+00	-1.407217912602724441e+00
8.321298800443390064e+03	-1.407371791732645594e+00	3.914034907145701236e+00	-1.407357434377029870e+00
8.321302267609336923e+03	-1.407519414908100952e+00	3.918675280413105089e+00	-1.407504321344487330e+00
8.321305734775283781e+03	-1.407674396939299521e+00	3.923502387087063337e+00	-1.407658567758237611e+00
8.321309201941230640e+03	-1.407836731762190263e+00	3.928516072301901474e+00	-1.407820167583054838e+00
8.321312669107177499e+03	-1.408006413024609049e+00	3.933716175327170550e+00	-1.407989114495574512e+00
8.321316136273124357e+03	-1.408183434086512698e+00	3.939102529567657829e+00	-1.408165401884530654e+00
8.321319603439069397e+03	-1.408367788020242317e+00	3.944674962563559539e+00	-1.408349022851014265e+00
8.321323070605016255e+03	-1.408559467610774885e+00	3.950433295990299687e+00	-1.408539970208727121e+00
8.321326537770963114e+03	-1.408758465355999245e+00	3.956377345658480760e+00	-1.408738236484252893e+00
8.321330004936909972e+03	-1.408964773467000553e+00	3.962506921513959224e+00	-1.408943813917345800e+00
8.321333472102856831e+03	-1.409178383868359141e+00	3.968821827637702526e+00	-1.409156694461221715e+00
8.321336939268803690e+03	-1.409399288198450062e+00	3.975321862245702498e+00	-1.409376869782862807e+00
8.321340406434750548e+03	-1.409627477809767493e+00	3.982006817688960698e+00	-1.409604331263336618e+00
8.321343873600697407e+03	-1.409862943769243371e+00	3.988876480453206419e+00	-1.409839069998116035e+00
8.321347340766644265e+03	-1.410105676858590895e+00	3.995930631158867374e+00	-1.410081076797421007e+00
8.321350807932591124e+03	-1.410355667574652472e+00	4.003169044560891621e+00	-1.410330342186564501e+00
8.321354275098537983e+03	-1.410612906129762312e+00	4.010591489548661848e+00	-1.410586856406315315e+00
8.321357742264484841e+03	-1.410877382452117690e+00	4.018197729145896346e+00	-1.410850609413267343e+00
8.321361209430429881e+03	-1.411149086186161306e+00	4.025987520510421191e+00	-1.411121590880221044e+00
8.321364676596376739e+03	-1.411428006692971193e+00	4.033960614934033906e+00	-1.411399790196573578e+00
8.321368143762323598e+03	-1.411714133050664843e+00	4.042116757842278751e+00	-1.411685196468719372e+00
8.321371610928270456e+03	-1.412007454054814426e+00	4.050455688794350806e+00	-1.411977798520466454e+00
8.321375078094217315e+03	-1.412307958218872450e+00	4.058977141482935203e+00	-1.412277584893459892e+00
8.321378545260164174e+03	-1.412615633774606527e+00	4.067680843734036600e+00	-1.412584543847615448e+00
8.321382012426111032e+03	-1.412930468672550344e+00	4.076566517506944543e+00	-1.412898663361569662e+00
8.321385479592057891e+03	-1.413252450582455744e+00	4.085633878893980331e+00	-1.413219931133132823e+00
8.321388946758004749e+03	-1.413581566893766350e+00	4.094882638120438401e+00	-1.413548334579757260e+00
8.321392413923951608e+03	-1.413917804716092963e+00	4.104312499544478854e+00	-1.413883860839014961e+00
8.321395881089898467e+03	-1.414261150879702056e+00	4.113923161656935612e+00	-1.414226496769084962e+00
8.321399348255845325e+03	-1.414611591936017376e+00	4.123714317081300429e+00	-1.414576228949252057e+00
8.321402815421790365e+03	-1.414969114158134644e+00	4.133685652573731772e+00	-1.414933043680421498e+00
8.321406282587737223e+03	-1.415333703541343580e+00	4.143836849023040614e+00	-1.415296926985639470e+00
8.321409749753684082e+03	-1.415705345803653259e+00	4.154167581450546542e+00	-1.415667864610619775e+00
8.321413216919630941e+03	-1.416084026386344341e+00	4.164677519010234086e+00	-1.416045842024290957e+00
8.321416684085577799e+03	-1.416469730454513076e+00	4.175366324988605271e+00	-1.416430844419341861e+00
8.321420151251524658e+03	-1.416862442897644403e+00	4.186233656804980718e+00	-1.416822856712793621e+00
8.321423618417471516e+03	-1.417262148330177940e+00	4.197279166011364637e+00	-1.417221863546563654e+00
8.321427085583418375e+03	-1.417668831092102621e+00	4.208502498292821414e+00	-1.417627849288059183e+00
8.321430552749365233e+03	-1.418082475249546670e+00	4.219903293467529792e+00	-1.418040798030767879e+00
8.321434019915312092e+03	-1.418503064595387109e+00	4.231481185487069752e+00	-1.418460693594864264e+00
8.321437487081258951e+03	-1.418930582649863048e+00	4.243235802436580606e+00	-1.418887519527823216e+00
8.321440954247205809e+03	-1.419365012661209846e+00	4.255166766535264600e+00	-1.419321259105051691e+00
8.321444421413150849e+03	-1.419806337606291047e+00	4.267273694136578754e+00	-1.419761895330520662e+00
8.321447888579097707e+03	-1.420254540191249637e+00	4.279556195728783763e+00	-1.420209410937417482e+00
8.321451355745044566e+03	-1.420709602852166853e+00	4.292013875935286826e+00	-1.420663788388798032e+00
8.321454822910991425e+03	-1.421171507755728758e+00	4.304646333515233181e+00	-1.421125009878258405e+00
8.321458290076938283e+03	-1.421640236799904589e+00	4.317453161363985714e+00	-1.421593057330608589e+00
8.321461757242885142e+03	-1.422115771614638868e+00	4.330433946513789323e+00	-1.422067912402563472e+00
8.321465224408832000e+03	-1.422598093562557509e+00	4.343588270134713269e+00	-1.422549556483449384e+00
8.321468691574778859e+03	-1.423087183739673467e+00	4.356915707535304882e+00	-1.423037970695909316e+00
8.321472158740725718e+03	-1.423583022976105061e+00	4.370415828163244143e+00	-1.423533135896616342e+00
8.321475625906672576e+03	-1.424085591836813380e+00	4.384088195606600458e+00	-1.424035032677015478e+00
8.321479093072619435e+03	-1.424594870622337472e+00	4.397932367594566294e+00	-1.424543641364054647e+00
8.321482560238566293e+03	-1.425110839369547300e+00	4.411947895998560298e+00	-1.425058942020935193e+00
8.321486027404511333e+03	-1.425633477852407793e+00	4.426134326833517818e+00	-1.425580914447879266e+00
8.321489494570458191e+03	-1.426162765582750680e+00	4.440491200259052640e+00	-1.426109538182895875e+00
8.321492961736405050e+03	-1.426698681811054970e+00	4.455018050580843436e+00	-1.426644792502565151e+00
8.321496428902351909e+03	-1.427241205527242984e+00	4.469714406251981131e+00	-1.427186656422827271e+00
8.321499896068298767e+03	-1.427790315461481274e+00	4.484579789874705291e+00	-1.427735108699790034e+00
8.321503363234245626e+03	-1.428345990084986195e+00	4.499613718201599610e+00	-1.428290127830526002e+00
8.321506830400192484e+03	-1.428908207610858572e+00	4.514815702137772391e+00	-1.428851692053911604e+00
8.321510297566139343e+03	-1.429476945994910597e+00	4.530185246742450822e+00	-1.429419779351449371e+00
8.321513764732086202e+03	-1.430052182936505600e+00	4.545721851230922539e+00	-1.429994367448110149e+00
8.321517231898033060e+03	-1.430633895879410478e+00	4.561425008976456752e+00	-1.430575433813181085e+00
8.321520699063979919e+03	-1.431222062012660556e+00	4.577294207512593083e+00	-1.431162955661132052e+00
8.321524166229926777e+03	-1.431816658271434672e+00	4.593328928535437505e+00	-1.431756909952487167e+00
8.321527633395871817e+03	-1.432417661337934911e+00	4.609528647906036447e+00	-1.432357273394707420e+00
8.321531100561818675e+03	-1.433025047642276562e+00	4.625892835652728685e+00	-1.432964022443075081e+00
8.321534567727765534e+03	-1.433638793363392949e+00	4.642420955973984853e+00	-1.433577133301602302e+00
8.321538034893712393e+03	-1.434258874429944708e+00	4.659112467240952959e+00	-1.434196581923934621e+00
8.321541502059659251e+03	-1.434885266521245484e+00	4.675966822000538592e+00	-1.434822344014278439e+00
8.321544969225606110e+03	-1.435517945068188528e+00	4.692983466978330576e+00	-1.435454395028327390e+00
8.321548436391552968e+03	-1.436156885254189275e+00	4.710161843081770883e+00	-1.436092710174202480e+00
8.321551903557499827e+03	-1.436802062016139248e+00	4.727501385403502177e+00	-1.436737264413403770e+00
8.321555370723446686e+03	-1.437453450045364400e+00	4.745001523224825490e+00	-1.437388032461770049e+00
8.321558837889393544e+03	-1.438111023788589460e+00	4.762661680019197874e+00	-1.438044988790443623e+00
8.321562305055340403e+03	-1.438774757448924246e+00	4.780481273455985836e+00	-1.438708107626849975e+00
8.321565772221287261e+03	-1.439444624986851773e+00	4.798459715404515435e+00	-1.439377362955690742e+00
8.321569239387232301e+03	-1.440120600121223893e+00	4.816596411937979383e+00	-1.440052728519936043e+00
8.321572706553179160e+03	-1.440802656330267828e+00	4.834890763337598152e+00	-1.440734177821828776e+00
8.321576173719126018e+03	-1.441490766852617122e+00	4.853342164097380618e+00	-1.441421684123916913e+00
8.321579640885072877e+03	-1.442184904688315505e+00	4.871950002928097767e+00	-1.442115220450056690e+00
8.321583108051019735e+03	-1.442885042599868273e+00	4.890713662762308012e+00	-1.442814759586459772e+00
8.321586575216966594e+03	-1.443591153113288561e+00	4.909632520759342533e+00	-1.443520274082740640e+00
8.321590042382913452e+03	-1.444303208519145398e+00	4.928705948310191154e+00	-1.444231736252966414e+00
8.321593509548860311e+03	-1.445021180873630628e+00	4.947933311042759463e+00	-1.444949118176717784e+00
8.321596976714807170e+03	-1.445745041999634495e+00	4.967313968827409276e+00	-1.445672391700166370e+00
8.321600443880754028e+03	-1.446474763487826998e+00	4.986847275782543498e+00	-1.446401528437155859e+00
8.321603911046700887e+03	-1.447210316697749910e+00	5.006532580280342870e+00	-1.447136499770290907e+00
8.321607378212647745e+03	-1.447951672758914343e+00	5.026369224952785153e+00	-1.447877276852035822e+00
8.321610845378592785e+03	-1.448698802571917188e+00	5.046356546697916556e+00	-1.448623830605828999e+00
8.321614312544539644e+03	-1.449451676809553335e+00	5.066493876686141817e+00	-1.449376131727195371e+00
8.321617779710486502e+03	-1.450210265917943664e+00	5.086780540366710568e+00	-1.450134150684871726e+00
8.321621246876433361e+03	-1.450974540117675460e+00	5.107215857474679765e+00	-1.450897857721946460e+00
8.321624714042380219e+03	-1.451744469404953497e+00	5.127799142038069746e+00	-1.451667222857012440e+00
8.321628181208327078e+03	-1.452520023552742678e+00	5.148529702384707640e+00	-1.452442215885305199e+00
8.321631648374273936e+03	-1.453301172111937545e+00	5.169406841149839060e+00	-1.453222806379873999e+00
8.321635115540220795e+03	-1.454087884412536669e+00	5.190429855283803739e+00	-1.454008963692753786e+00
8.321638582706167654e+03	-1.454880129564823488e+00	5.211598036059944761e+00	-1.454800656956146687e+00
8.321642049872114512e+03	-1.455677876460554687e+00	5.232910669082591504e+00	-1.455597855083607728e+00
8.321645517038061371e+03	-1.456481093774157909e+00	5.254367034295405858e+00	-1.456400526771243209e+00
8.321648984204008229e+03	-1.457289749963943004e+00	5.275966405990021535e+00	-1.457208640498920627e+00
8.321652451369953269e+03	-1.458103813273312621e+00	5.297708052814693147e+00	-1.458022164531478371e+00
8.321655918535900128e+03	-1.458923251731990334e+00	5.319591237783354742e+00	-1.458841066919951635e+00
8.321659385701846986e+03	-1.459748033157252101e+00	5.341615218284960775e+00	-1.459665315502806759e+00
8.321662852867793845e+03	-1.460578125155170826e+00	5.363779246092910569e+00	-1.460494877907180022e+00
8.321666320033740703e+03	-1.461413495121860917e+00	5.386082567374793406e+00	-1.461329721550125749e+00
8.321669787199687562e+03	-1.462254110244739502e+00	5.408524422702367218e+00	-1.462169813639873750e+00
8.321673254365634421e+03	-1.463099937503793857e+00	5.431104047061836582e+00	-1.463015121177096756e+00
8.321676721531581279e+03	-1.463950943672854832e+00	5.453820669864337667e+00	-1.463865610956183172e+00
8.321680188697528138e+03	-1.464807095320881603e+00	5.476673514956745592e+00	-1.464721249566522276e+00
8.321683655863474996e+03	-1.465668358813254191e+00	5.499661800632679842e+00	-1.465582003393793853e+00
8.321687123029421855e+03	-1.466534700313066653e+00	5.522784739643608276e+00	-1.466447838621261157e+00
8.321690590195368713e+03	-1.467406085782445357e+00	5.546041539210683879e+00	-1.467318721231088086e+00
8.321694057361313753e+03	-1.468282480983852833e+00	5.569431401036283980e+00	-1.468194617005644798e+00
8.321697524527260612e+03	-1.469163851481422034e+00	5.592953521316256449e+00	-1.469075491528836652e+00
8.321700991693207470e+03	-1.470050162642283720e+00	5.616607090752303577e+00	-1.469961310187435144e+00
8.321704458859154329e+03	-1.470941379637901614e+00	5.640391294564367719e+00	-1.470852038172409726e+00
8.321707926025101187e+03	-1.471837467445431535e+00	5.664305312503910450e+00	-1.471747640480286945e+00
8.321711393191048046e+03	-1.472738390849064771e+00	5.688348318866758291e+00	-1.472648081914492479e+00
8.321714860356994905e+03	-1.473644114441399644e+00	5.712519482506825952e+00	-1.473553327086722486e+00
8.321718327522941763e+03	-1.474554602624805533e+00	5.736817966849685035e+00	-1.474463340418307622e+00
8.321721794688888622e+03	-1.475469819612807543e+00	5.761242929906768673e+00	-1.475378086141595046e+00
8.321725261854835480e+03	-1.476389729431468512e+00	5.785793524289593037e+00	-1.476297528301330653e+00
8.321728729020782339e+03	-1.477314295920789888e+00	5.810468897224626339e+00	-1.477221630756059945e+00
8.321732196186729198e+03	-1.478243482736105285e+00	5.835268190567991731e+00	-1.478150357179520036e+00
8.321735663352674237e+03	-1.479177253349493348e+00	5.860190540820796379e+00	-1.479083671062050742e+00
8.321739130518621096e+03	-1.480115571051194179e+00	5.885235079144688797e+00	-1.480021535712012559e+00
8.321742597684567954e+03	-1.481058398951033972e+00	5.910400931377719935e+00	-1.480963914257208636e+00
8.321746064850514813e+03	-1.482005699979852986e+00	5.935687218050449410e+00	-1.481910769646313408e+00
8.321749532016461671e+03	-1.482957436890944614e+00	5.961093054402363478e+00	-1.482862064650309675e+00
8.321752999182408530e+03	-1.483913572261505776e+00	5.986617550398817045e+00	-1.483817761863939211e+00
8.321756466348355389e+03	-1.484874068494083543e+00	6.012259810747934807e+00	-1.484777823707147615e+00
8.321759933514302247e+03	-1.485838887818038412e+00	6.038018934918147451e+00	-1.485742212426549136e+00
8.321763400680249106e+03	-1.486807992291009572e+00	6.063894017155787353e+00	-1.486710890096888393e+00
8.321766867846195964e+03	-1.487781343800391287e+00	6.089884146503274920e+00	-1.487683818622517862e+00
8.321770335012142823e+03	-1.488758904064813704e+00	6.115988406817433720e+00	-1.488660959738876910e+00
8.321773802178089682e+03	-1.489740634635631666e+00	6.142205876788219499e+00	-1.489642275013980832e+00
8.321777269344034721e+03	-1.490726496898412856e+00	6.168535629957560218e+00	-1.490627725849909213e+00
8.321780736509981580e+03	-1.491716452074445032e+00	6.194976734738833812e+00	-1.491617273484308948e+00
8.321784203675928438e+03	-1.492710461222249041e+00	6.221528254436689664e+00	-1.492610878991910139e+00
8.321787670841875297e+03	-1.493708485239082062e+00	6.248189247266758173e+00	-1.493608503286028011e+00
8.321791138007822155e+03	-1.494710484862467714e+00	6.274958766376176555e+00	-1.494610107120090570e+00
8.321794605173769014e+03	-1.495716420671721281e+00	6.301835859864246991e+00	-1.495615651089165388e+00
8.321798072339715873e+03	-1.496726253089488479e+00	6.328819570803467798e+00	-1.496625095631495483e+00
8.321801539505662731e+03	-1.497739942383281564e+00	6.355908937260887903e+00	-1.497638401030037425e+00
8.321805006671609590e+03	-1.498757448667026315e+00	6.383102992319665603e+00	-1.498655527414005428e+00
8.321808473837556448e+03	-1.499778731902625006e+00	6.410400764101406246e+00	-1.499676434760433663e+00
8.321811941003503307e+03	-1.500803751901510052e+00	6.437801275788420874e+00	-1.500701082895732119e+00
8.321815408169450166e+03	-1.501832468326207426e+00	6.465303545646261085e+00	-1.501729431497245582e+00
8.321818875335395205e+03	-1.502864840691913173e+00	6.492906587047033717e+00	-1.502761440094832812e+00
8.321822342501342064e+03	-1.503900828368070375e+00	6.520609408492690662e+00	-1.503797068072441068e+00
8.321825809667288922e+03	-1.504940390579955434e+00	6.548411013638913758e+00	-1.504836274669692164e+00
8.321829276833235781e+03	-1.505983486410273242e+00	6.576310401319253707e+00	-1.505879018983474982e+00
8.321832743999182640e+03	-1.507030074800748576e+00	6.604306565569670440e+00	-1.506925259969541742e+00
8.321836211165129498e+03	-1.508080114553729256e+00	6.632398495653212933e+00	-1.507974956444105619e+00
8.321839678331076357e+03	-1.509133564333796862e+00	6.660585176085352721e+00	-1.509028067085451452e+00
8.321843145497023215e+03	-1.510190382669377218e+00	6.688865586659448859e+00	-1.510084550435547790e+00
8.321846612662970074e+03	-1.511250527954363987e+00	6.717238702472767109e+00	-1.511144364901669590e+00
8.321850079828916932e+03	-1.512313958449745588e+00	6.745703493952741603e+00	-1.512207468758021589e+00
8.321853546994863791e+03	-1.513380632285228344e+00	6.774258926883470977e+00	-1.513273820147364779e+00
8.321857014160810650e+03	-1.514450507460880280e+00	6.802903962432866436e+00	-1.514343377082657760e+00
8.321860481326755689e+03	-1.515523541848770694e+00	6.831637557179933040e+00	-1.515416097448694988e+00
8.321863948492702548e+03	-1.516599693194619958e+00	6.860458663142645186e+00	-1.516491939003758116e+00
8.321867415658649406e+03	-1.517678919119448411e+00	6.889366227805800769e+00	-1.517570859381262460e+00
8.321870882824596265e+03	-1.518761177121234818e+00	6.918359194149619640e+00	-1.518652816091415891e+00
8.321874349990543124e+03	-1.519846424576587696e+00	6.947436500678694671e+00	-1.519737766522889721e+00
