# time(us)	tip(nm)	Fts(nN)	Xb(nm)
8.321201719796881662e+03	-8.023353553200415433e+00	1.837899137542154619e+02	-8.023355446970414917e+00
8.321205186962828520e+03	-8.023336428227544559e+00	1.837897718066786581e+02	-8.023337992400403351e+00
8.321208654128775379e+03	-8.023322599582055403e+00	1.837898303791517662e+02	-8.023323834094997054e+00
8.321212121294722238e+03	-8.023312067820279836e+00	1.837900894689793176e+02	-8.023312972623518391e+00
8.321215588460669096e+03	-8.023304833368555933e+00	1.837905490657257133e+02	-8.023305408425311924e+00
8.321219055626615955e+03	-8.023300896523231529e+00	1.837912091511749964e+02	-8.023301141809715986e+00
8.321222522792562813e+03	-8.023300257450632245e+00	1.837920696993325578e+02	-8.023300172956064458e+00
8.321225989958509672e+03	-8.023302916187095235e+00	1.837931306764270118e+02	-8.023302501913692097e+00
8.321229457124456530e+03	-8.023308872638969191e+00	1.837943920409120722e+02	-8.023308128601945199e+00
8.321232924290403389e+03	-8.023318126582539733e+00	1.837958537434638515e+02	-8.023317052810117644e+00
8.321236391456348429e+03	-8.023330677664096910e+00	1.837975157269857220e+02	-8.023329274197497085e+00
8.321239858622295287e+03	-8.023346525399981388e+00	1.837993779266119532e+02	-8.023344792293418237e+00
8.321243325788242146e+03	-8.023365669176508064e+00	1.838014402697060348e+02	-8.023363606497200706e+00
8.321246792954189004e+03	-8.023388108250049555e+00	1.838037026758651109e+02	-8.023385716078205832e+00
8.321250260120135863e+03	-8.023413841747093045e+00	1.838061650569254653e+02	-8.023411120175913069e+00
8.321253727286082722e+03	-8.023442868664234950e+00	1.838088273169631748e+02	-8.023439817799893348e+00
8.321257194452029580e+03	-8.023475187868331915e+00	1.838116893523056490e+02	-8.023471807829986702e+00
8.321260661617976439e+03	-8.023510798096324947e+00	1.838147510515216823e+02	-8.023507089016133520e+00
8.321264128783923297e+03	-8.023549697955305149e+00	1.838180122954245235e+02	-8.023545659978386979e+00
8.321267595949870156e+03	-8.023591885922776612e+00	1.838214729570908617e+02	-8.023587519207216801e+00
8.321271063115817014e+03	-8.023637360346601355e+00	1.838251329018583817e+02	-8.023632665063445302e+00
8.321274530281763873e+03	-8.023686119445084586e+00	1.838289919873317046e+02	-8.023681095778332661e+00
8.321277997447708913e+03	-8.023738161307019112e+00	1.838330500633866507e+02	-8.023732809453615999e+00
8.321281464613655771e+03	-8.023793483891781264e+00	1.838373069721761794e+02	-8.023787804061610629e+00
8.321284931779602630e+03	-8.023852085029353987e+00	1.838417625481337438e+02	-8.023846077445236702e+00
8.321288398945549488e+03	-8.023913962420497370e+00	1.838464166179835502e+02	-8.023907627318168423e+00
8.321291866111496347e+03	-8.023979113636800164e+00	1.838512690007457593e+02	-8.023972451264913985e+00
8.321295333277443206e+03	-8.024047536120777480e+00	1.838563195077422847e+02	-8.024040546740888402e+00
8.321298800443390064e+03	-8.024119227185991576e+00	1.838615679426056602e+02	-8.024111911072543180e+00
8.321302267609336923e+03	-8.024194184017094500e+00	1.838670141012825923e+02	-8.024186541457416055e+00
8.321305734775283781e+03	-8.024272403669998610e+00	1.838726577720450166e+02	-8.024264434964296200e+00
8.321309201941230640e+03	-8.024353883071986715e+00	1.838784987354960663e+02	-8.024345588533307705e+00
8.321312669107177499e+03	-8.024438619021802666e+00	1.838845367645799342e+02	-8.024429998976058798e+00
8.321316136273124357e+03	-8.024526608189789911e+00	1.838907716245871597e+02	-8.024517662975718224e+00
8.321319603439069397e+03	-8.024617847118042491e+00	1.838972030731673044e+02	-8.024608577087205319e+00
8.321323070605016255e+03	-8.024712332220527600e+00	1.839038308603352334e+02	-8.024702737737285929e+00
8.321326537770963114e+03	-8.024810059783199279e+00	1.839106547284805231e+02	-8.024800141224719852e+00
8.321330004936909972e+03	-8.024911025964144073e+00	1.839176744123747937e+02	-8.024900783720360309e+00
8.321333472102856831e+03	-8.025015226793792422e+00	1.839248896391873416e+02	-8.025004661267406192e+00
8.321336939268803690e+03	-8.025122658175003920e+00	1.839323001284893166e+02	-8.025111769781460680e+00
8.321340406434750548e+03	-8.025233315883303575e+00	1.839399055922699517e+02	-8.025222105050781707e+00
8.321343873600697407e+03	-8.025347195566983061e+00	1.839477057349421898e+02	-8.025335662736376108e+00
8.321347340766644265e+03	-8.025464292747290784e+00	1.839557002533547632e+02	-8.025452438372177255e+00
8.321350807932591124e+03	-8.025584602818620183e+00	1.839638888368059213e+02	-8.025572427365268879e+00
8.321354275098537983e+03	-8.025708121048676702e+00	1.839722711670518152e+02	-8.025695624996012967e+00
8.321357742264484841e+03	-8.025834842578674966e+00	1.839808469183201680e+02	-8.025822026418264699e+00
8.321361209430429881e+03	-8.025964762423502208e+00	1.839896157573202800e+02	-8.025951626659532323e+00
8.321364676596376739e+03	-8.026097875471920773e+00	1.839985773432561018e+02	-8.026084420621190318e+00
8.321368143762323598e+03	-8.026234176486813254e+00	1.840077313278405882e+02	-8.026220403078687227e+00
8.321371610928270456e+03	-8.026373660105347696e+00	1.840170773553074355e+02	-8.026359568681760592e+00
8.321375078094217315e+03	-8.026516320839194307e+00	1.840266150624240993e+02	-8.026501911954625257e+00
8.321378545260164174e+03	-8.026662153074770600e+00	1.840363440785063460e+02	-8.026647427296211390e+00
8.321382012426111032e+03	-8.026811151073408368e+00	1.840462640254292239e+02	-8.026796108980340350e+00
8.321385479592057891e+03	-8.026963308971582833e+00	1.840563745176417285e+02	-8.026947951155968042e+00
8.321388946758004749e+03	-8.027118620781225289e+00	1.840666751621858168e+02	-8.027102947847479797e+00
8.321392413923951608e+03	-8.027277080389829678e+00	1.840771655587014379e+02	-8.027261092954782740e+00
8.321395881089898467e+03	-8.027438681560822076e+00	1.840878452994530790e+02	-8.027422380253721457e+00
8.321399348255845325e+03	-8.027603417933709906e+00	1.840987139693337440e+02	-8.027586803396157933e+00
8.321402815421790365e+03	-8.027771283024369708e+00	1.841097711458888568e+02	-8.027754355910353468e+00
8.321406282587737223e+03	-8.027942270225326027e+00	1.841210163993262086e+02	-8.027925031201126771e+00
8.321409749753684082e+03	-8.028116372805920165e+00	1.841324492925329537e+02	-8.028098822550134628e+00
8.321413216919630941e+03	-8.028293583912727627e+00	1.841440693810972391e+02	-8.028275723116227169e+00
8.321416684085577799e+03	-8.028473896569654045e+00	1.841558762133146274e+02	-8.028455725935545573e+00
8.321420151251524658e+03	-8.028657303678341961e+00	1.841678693302149554e+02	-8.028638823921969703e+00
8.321423618417471516e+03	-8.028843798018399980e+00	1.841800482655725659e+02	-8.028825009867283313e+00
8.321427085583418375e+03	-8.029033372247649680e+00	1.841924125459248103e+02	-8.029014276441474252e+00
8.321430552749365233e+03	-8.029226018902466677e+00	1.842049616905910625e+02	-8.029206616193052426e+00
8.321434019915312092e+03	-8.029421730398054180e+00	1.842176952116896587e+02	-8.029402021549325141e+00
8.321437487081258951e+03	-8.029620499028771619e+00	1.842306126141578204e+02	-8.029600484816723949e+00
8.321440954247205809e+03	-8.029822316968362017e+00	1.842437133957655533e+02	-8.029801998181039124e+00
8.321444421413150849e+03	-8.030027176270349898e+00	1.842569970471391798e+02	-8.030006553707798034e+00
8.321447888579097707e+03	-8.030235068868297077e+00	1.842704630517777105e+02	-8.030214143342549349e+00
8.321451355745044566e+03	-8.030445986576109973e+00	1.842841108860708061e+02	-8.030424758911152594e+00
8.321454822910991425e+03	-8.030659921088394881e+00	1.842979400193200092e+02	-8.030638392120126312e+00
8.321458290076938283e+03	-8.030876863980813241e+00	1.843119499137605146e+02	-8.030855034557013994e+00
8.321461757242885142e+03	-8.031096806710323222e+00	1.843261400245754942e+02	-8.031074677690623886e+00
8.321465224408832000e+03	-8.031319740615581182e+00	1.843405097999210227e+02	-8.031297312871432226e+00
8.321468691574778859e+03	-8.031545656917257858e+00	1.843550586809437561e+02	-8.031522931331892323e+00
8.321472158740725718e+03	-8.031774546718404295e+00	1.843697861018038680e+02	-8.031751524186802271e+00
8.321475625906672576e+03	-8.032006401004789353e+00	1.843846914896945179e+02	-8.031983082433635346e+00
8.321479093072619435e+03	-8.032241210645242546e+00	1.843997742648644760e+02	-8.032217596952913041e+00
8.321482560238566293e+03	-8.032478966392009312e+00	1.844150338406357719e+02	-8.032455058508508827e+00
8.321486027404511333e+03	-8.032719658881152469e+00	1.844304696234315202e+02	-8.032695457748097567e+00
8.321489494570458191e+03	-8.032963278632884396e+00	1.844460810127933996e+02	-8.032938785203455723e+00
8.321492961736405050e+03	-8.033209816051918750e+00	1.844618674014036515e+02	-8.033185031290832612e+00
8.321496428902351909e+03	-8.033459261427960740e+00	1.844778281751132454e+02	-8.033434186311406933e+00
8.321499896068298767e+03	-8.033711604935946937e+00	1.844939627129590747e+02	-8.033686240451590521e+00
8.321503363234245626e+03	-8.033966836636482256e+00	1.845102703871865515e+02	-8.033941183783392503e+00
8.321506830400192484e+03	-8.034224946476273388e+00	1.845267505632773180e+02	-8.034199006264893583e+00
8.321510297566139343e+03	-8.034485924288473413e+00	1.845434025999702214e+02	-8.034459697740588879e+00
8.321513764732086202e+03	-8.034749759793074375e+00	1.845602258492835404e+02	-8.034723247941768065e+00
8.321517231898033060e+03	-8.035016442597346042e+00	1.845772196565414447e+02	-8.034989646486952353e+00
8.321520699063979919e+03	-8.035285962196224929e+00	1.845943833603973872e+02	-8.035258882882288844e+00
8.321524166229926777e+03	-8.035558307972737069e+00	1.846117162928599100e+02	-8.035530946521982187e+00
8.321527633395871817e+03	-8.035833469198443879e+00	1.846292177793175711e+02	-8.035805826688715570e+00
8.321531100561818675e+03	-8.036111435033802763e+00	1.846468871385631019e+02	-8.036083512554050401e+00
8.321534567727765534e+03	-8.036392194528572119e+00	1.846647236828138432e+02	-8.036363993178781584e+00
8.321538034893712393e+03	-8.036675736622418853e+00	1.846827267177504268e+02	-8.036647257513568121e+00
8.321541502059659251e+03	-8.036962050145127989e+00	1.847008955425298211e+02	-8.036933294399171146e+00
8.321544969225606110e+03	-8.037251123817183540e+00	1.847192294498172487e+02	-8.037222092566979725e+00
8.321548436391552968e+03	-8.037542946250134435e+00	1.847377277258100321e+02	-8.037513640639410539e+00
8.321551903557499827e+03	-8.037837505947075911e+00	1.847563896502657030e+02	-8.037807927130394603e+00
8.321555370723446686e+03	-8.038134791303122029e+00	1.847752144965296850e+02	-8.038104940445823132e+00
8.321558837889393544e+03	-8.038434790605828439e+00	1.847942015315600770e+02	-8.038404668883979198e+00
8.321562305055340403e+03	-8.038737492035686216e+00	1.848133500159580365e+02	-8.038707100636042213e+00
8.321565772221287261e+03	-8.039042883666539296e+00	1.848326592039920797e+02	-8.039012223786496492e+00
8.321569239387232301e+03	-8.039350953466060545e+00	1.848521283436268163e+02	-8.039320026313626855e+00
8.321572706553179160e+03	-8.039661689296259794e+00	1.848717566765505183e+02	-8.039630496089968048e+00
8.321576173719126018e+03	-8.039975078913958129e+00	1.848915434382072931e+02	-8.039943620882850084e+00
8.321579640885072877e+03	-8.040291109971217764e+00	1.849114878578195089e+02	-8.040259388354780157e+00
8.321583108051019735e+03	-8.040609770015889168e+00	1.849315891584220140e+02	-8.040577786064021737e+00
8.321586575216966594e+03	-8.040931046492074685e+00	1.849518465568876309e+02	-8.040898801465013790e+00
8.321590042382913452e+03	-8.041254926740650788e+00	1.849722592639606376e+02	-8.041222421908948093e+00
8.321593509548860311e+03	-8.041581397999721048e+00	1.849928264842819203e+02	-8.041548634644174243e+00
8.321596976714807170e+03	-8.041910447405090423e+00	1.850135474164170830e+02	-8.041877426816702368e+00
8.321600443880754028e+03	-8.042242061990847901e+00	1.850344212528921162e+02	-8.042208785470778665e+00
8.321603911046700887e+03	-8.042576228689840789e+00	1.850554471802198293e+02	-8.042542697549343700e+00
8.321607378212647745e+03	-8.042912934334193409e+00	1.850766243789320811e+02	-8.042879149894574198e+00
8.321610845378592785e+03	-8.043252165655802699e+00	1.850979520236085705e+02	-8.043218129248367987e+00
8.321614312544539644e+03	-8.043593909286894217e+00	1.851194292829093229e+02	-8.043559622252891117e+00
8.321617779710486502e+03	-8.043938151760544386e+00	1.851410553196062665e+02	-8.043903615451112543e+00
8.321621246876433361e+03	-8.044284879511199193e+00	1.851628292906138995e+02	-8.044250095287317492e+00
8.321624714042380219e+03	-8.044634078875171568e+00	1.851847503470185359e+02	-8.044599048107608397e+00
8.321628181208327078e+03	-8.044985736091236461e+00	1.852068176341134063e+02	-8.044950460160489314e+00
8.321631648374273936e+03	-8.045339837301183294e+00	1.852290302914307460e+02	-8.045304317597416599e+00
8.321635115540220795e+03	-8.045696368550332878e+00	1.852513874527753046e+02	-8.045660606473347798e+00
8.321638582706167654e+03	-8.046055315787979723e+00	1.852738882462471679e+02	-8.046019312747150209e+00
8.321642049872114512e+03	-8.046416664868104363e+00	1.852965317942840784e+02	-8.046380422282302547e+00
8.321645517038061371e+03	-8.046780401549847639e+00	1.853193172136927274e+02	-8.046743920847417186e+00
8.321648984204008229e+03	-8.047146511498119992e+00	1.853422436156804451e+02	-8.047109794116789061e+00
8.321652451369953269e+03	-8.047514980284146802e+00	1.853653101058915524e+02	-8.047478027670990741e+00
8.321655918535900128e+03	-8.047885793386019060e+00	1.853885157844382263e+02	-8.047848606997410670e+00
8.321659385701846986e+03	-8.048258936189249368e+00	1.854118597459319346e+02	-8.048221517490782517e+00
8.321662852867793845e+03	-8.048634393987365243e+00	1.854353410795212653e+02	-8.048596744453808682e+00
8.321666320033740703e+03	-8.049012151982527286e+00	1.854589588689263735e+02	-8.048974273097760701e+00
8.321669787199687562e+03	-8.049392195286083407e+00	1.854827121924737980e+02	-8.049354088543044128e+00
8.321673254365634421e+03	-8.049774508919123051e+00	1.855066001231274413e+02	-8.049736175819749207e+00
8.321676721531581279e+03	-8.050159077813049180e+00	1.855306217285230161e+02	-8.050120519868210422e+00
8.321680188697528138e+03	-8.050545886810260399e+00	1.855547760710092575e+02	-8.050507105539713493e+00
8.321683655863474996e+03	-8.050934920664714056e+00	1.855790622076802947e+02	-8.050895917597026497e+00
8.321687123029421855e+03	-8.051326164042453826e+00	1.856034791904068015e+02	-8.051286940714954099e+00
8.321690590195368713e+03	-8.051719601522302483e+00	1.856280260658784016e+02	-8.051680159481017895e+00
8.321694057361313753e+03	-8.052115217596448105e+00	1.856527018756368932e+02	-8.052075558396042609e+00
8.321697524527260612e+03	-8.052512996671021384e+00	1.856775056561116628e+02	-8.052473121874738737e+00
8.321700991693207470e+03	-8.052912923066763540e+00	1.857024364386575428e+02	-8.052872834246352696e+00
8.321704458859154329e+03	-8.053314981019573437e+00	1.857274932495897701e+02	-8.053274679755247689e+00
8.321707926025101187e+03	-8.053719154681138193e+00	1.857526751102187177e+02	-8.053678642561495238e+00
8.321711393191048046e+03	-8.054125428119613517e+00	1.857779810368919300e+02	-8.054084706741578614e+00
8.321714860356994905e+03	-8.054533785320222350e+00	1.858034100410293092e+02	-8.054492856288989699e+00
8.321718327522941763e+03	-8.054944210185896125e+00	1.858289611291610299e+02	-8.054903075114859590e+00
8.321721794688888622e+03	-8.055356686537860966e+00	1.858546333029618438e+02	-8.055315347048553676e+00
8.321725261854835480e+03	-8.055771198116335796e+00	1.858804255592931725e+02	-8.055729655838362646e+00
8.321728729020782339e+03	-8.056187728581107876e+00	1.859063368902372702e+02	-8.056145985152094013e+00
8.321732196186729198e+03	-8.056606261512268219e+00	1.859323662831396575e+02	-8.056564318577773776e+00
8.321735663352674237e+03	-8.057026780410705413e+00	1.859585127206402433e+02	-8.056984639624181099e+00
8.321739130518621096e+03	-8.057449268698903211e+00	1.859847751807193674e+02	-8.057406931721613930e+00
8.321742597684567954e+03	-8.057873709721585342e+00	1.860111526367360284e+02	-8.057831178222539137e+00
8.321746064850514813e+03	-8.058300086746251978e+00	1.860376440574612786e+02	-8.058257362402155621e+00
8.321749532016461671e+03	-8.058728382963952441e+00	1.860642484071217098e+02	-8.058685467459120844e+00
8.321752999182408530e+03	-8.059158581489910489e+00	1.860909646454387882e+02	-8.059115476516216958e+00
8.321756466348355389e+03	-8.059590665364138928e+00	1.861177917276640414e+02	-8.059547372620942340e+00
8.321759933514302247e+03	-8.060024617552222992e+00	1.861447286046264367e+02	-8.059981138746305618e+00
8.321763400680249106e+03	-8.060460420945814164e+00	1.861717742227603196e+02	-8.060416757791307063e+00
8.321766867846195964e+03	-8.060898058363488161e+00	1.861989275241582220e+02	-8.060854212581807232e+00
8.321770335012142823e+03	-8.061337512551334683e+00	1.862261874466048539e+02	-8.061293485871116715e+00
8.321773802178089682e+03	-8.061778766183625322e+00	1.862535529236170646e+02	-8.061734560340653388e+00
8.321777269344034721e+03	-8.062221801863531212e+00	1.862810228844862479e+02	-8.062177418600667167e+00
8.321780736509981580e+03	-8.062666602123767845e+00	1.863085962543175640e+02	-8.062622043190891929e+00
8.321784203675928438e+03	-8.063113149427300286e+00	1.863362719540704688e+02	-8.063068416581234743e+00
8.321787670841875297e+03	-8.063561426168067925e+00	1.863640489006029384e+02	-8.063516521172504170e+00
8.321791138007822155e+03	-8.064011414671700351e+00	1.863919260067137884e+02	-8.063966339297129693e+00
8.321794605173769014e+03	-8.064463097196110652e+00	1.864199021811788555e+02	-8.064417853219769228e+00
8.321798072339715873e+03	-8.064916455932230832e+00	1.864479763287932315e+02	-8.064871045138021444e+00
8.321801539505662731e+03	-8.065371473004702807e+00	1.864761473504130436e+02	-8.065325897183123871e+00
8.321805006671609590e+03	-8.065828130472670665e+00	1.865044141430022648e+02	-8.065782391420732722e+00
8.321808473837556448e+03	-8.066286410330402390e+00	1.865327755996715666e+02	-8.066240509851581919e+00
8.321811941003503307e+03	-8.066746294508009285e+00	1.865612306097189048e+02	-8.066700234412161663e+00
8.321815408169450166e+03	-8.067207764872135201e+00	1.865897780586717545e+02	-8.067161546975428976e+00
8.321818875335395205e+03	-8.067670803226709708e+00	1.866184168283320446e+02	-8.067624429351555548e+00
8.321822342501342064e+03	-8.068135391313683513e+00	1.866471457968190464e+02	-8.068088863288652490e+00
8.321825809667288922e+03	-8.068601510813770972e+00	1.866759638386152460e+02	-8.068554830473527062e+00
8.321829276833235781e+03	-8.069069143347062933e+00	1.867048698246024969e+02	-8.069022312532304397e+00
8.321832743999182640e+03	-8.069538270473890051e+00	1.867338626221126106e+02	-8.069491291031258839e+00
8.321836211165129498e+03	-8.070008873695329044e+00	1.867629410949585065e+02	-8.069961747477353953e+00
8.321839678331076357e+03	-8.070480934454124622e+00	1.867921041034885263e+02	-8.070433663319139583e+00
8.321843145497023215e+03	-8.070954434135416022e+00	1.868213505046300327e+02	-8.070907019947480165e+00
8.321846612662970074e+03	-8.071429354067390705e+00	1.868506791519292562e+02	-8.071381798696222631e+00
8.321850079828916932e+03	-8.071905675522076606e+00	1.868800888955984760e+02	-8.071857980842985114e+00
8.321853546994863791e+03	-8.072383379716033147e+00	1.869095785825558096e+02	-8.072335547609833739e+00
8.321857014160810650e+03	-8.072862447811099074e+00	1.869391470564720805e+02	-8.072814480164048234e+00
8.321860481326755689e+03	-8.073342860915166952e+00	1.869687931578158668e+02	-8.073294759618883987e+00
8.321863948492702548e+03	-8.073824600082895486e+00	1.869985157238961619e+02	-8.073776367034287915e+00
8.321867415658649406e+03	-8.074307646316473352e+00	1.870283135889085600e+02	-8.074259283417662303e+00
8.321870882824596265e+03	-8.074791980566370597e+00	1.870581855839801335e+02	-8.074743489724616197e+00
8.321874349990543124e+03	-8.075277583732070497e+00	1.870881305372126064e+02	-8.075228966859690161e+00
