# time(us)	tip(nm)	Fts(nN)	Xb(nm)
8.321201719796881662e+03	-8.893391820005946968e+00	2.162303775176592069e+02	-8.893393581426193961e+00
8.321205186962828520e+03	-8.893375929002688807e+00	2.162302568429637404e+02	-8.893377377104311421e+00
8.321208654128775379e+03	-8.893363171516671883e+00	2.162303368515167676e+02	-8.893364306241341666e+00
8.321212121294722238e+03	-8.893353548063208436e+00	2.162306175398602761e+02	-8.893354369364958600e+00
8.321215588460669096e+03	-8.893347059034045543e+00	2.162310988967308560e+02	-8.893347566879256760e+00
8.321219055626615955e+03	-8.893343704697292296e+00	2.162317809030586204e+02	-8.893343899064719338e+00
8.321222522792562813e+03	-8.893343485197505061e+00	2.162326635319716388e+02	-8.893343366078251933e+00
8.321225989958509672e+03	-8.893346400555643072e+00	2.162337467487964773e+02	-8.893345967953177222e+00
8.321229457124456530e+03	-8.893352450669050668e+00	2.162350305110574027e+02	-8.893351704599202989e+00
8.321232924290403389e+03	-8.893361635311498148e+00	2.162365147684800490e+02	-8.893360575802446988e+00
8.321236391456348429e+03	-8.893373954133135584e+00	2.162381994629916449e+02	-8.893372581225431617e+00
8.321239858622295287e+03	-8.893389406660613616e+00	2.162400845287268965e+02	-8.893387720407146091e+00
8.321243325788242146e+03	-8.893407992296952003e+00	2.162421698920254585e+02	-8.893405992762986045e+00
8.321246792954189004e+03	-8.893429710321534287e+00	2.162444554714286369e+02	-8.893427397584691363e+00
8.321250260120135863e+03	-8.893454559890306754e+00	2.162469411776936852e+02	-8.893451934040545126e+00
8.321253727286082722e+03	-8.893482540035751782e+00	2.162496269137965328e+02	-8.893479601175380722e+00
8.321257194452029580e+03	-8.893513649666942911e+00	2.162525125749331210e+02	-8.893510397910606713e+00
8.321260661617976439e+03	-8.893547887569523525e+00	2.162555980485218754e+02	-8.893544323044210387e+00
8.321264128783923297e+03	-8.893585252405765473e+00	2.162588832142065769e+02	-8.893581375250795062e+00
8.321267595949870156e+03	-8.893625742714702298e+00	2.162623679438677584e+02	-8.893621553081727527e+00
8.321271063115817014e+03	-8.893669356911964030e+00	2.162660521016114501e+02	-8.893664854964958622e+00
8.321274530281763873e+03	-8.893716093290120028e+00	2.162699355437929398e+02	-8.893711279205366083e+00
8.321277997447708913e+03	-8.893765950018764244e+00	2.162740181190237934e+02	-8.893760823984843356e+00
8.321281464613655771e+03	-8.893818925144278964e+00	2.162782996681585814e+02	-8.893813487362082881e+00
8.321284931779602630e+03	-8.893875016590163440e+00	2.162827800243152296e+02	-8.893869267272878076e+00
8.321288398945549488e+03	-8.893934222157044545e+00	2.162874590128768659e+02	-8.893928161530132215e+00
8.321291866111496347e+03	-8.893996539522655453e+00	2.162923364514934406e+02	-8.893990167823872639e+00
8.321295333277443206e+03	-8.894061966242086115e+00	2.162974121500953402e+02	-8.894055283721437277e+00
8.321298800443390064e+03	-8.894130499747857854e+00	2.163026859109013458e+02	-8.894123506667597212e+00
8.321302267609336923e+03	-8.894202137349966009e+00	2.163081575284242035e+02	-8.894194833984613524e+00
8.321305734775283781e+03	-8.894276876236000717e+00	2.163138267894750584e+02	-8.894269262872304793e+00
8.321309201941230640e+03	-8.894354713471242846e+00	2.163196934731723786e+02	-8.894346790408167891e+00
8.321312669107177499e+03	-8.894435645998857609e+00	2.163257573509560814e+02	-8.894427413547580485e+00
8.321316136273124357e+03	-8.894519670639873254e+00	2.163320181865870211e+02	-8.894511129123788606e+00
8.321319603439069397e+03	-8.894606784093427976e+00	2.163384757361607456e+02	-8.894597933848098492e+00
8.321323070605016255e+03	-8.894696982936849849e+00	2.163451297481174720e+02	-8.894687824310024027e+00
8.321326537770963114e+03	-8.894790263625774074e+00	2.163519799632476577e+02	-8.894780796977361348e+00
8.321330004936909972e+03	-8.894886622494352579e+00	2.163590261147055855e+02	-8.894876848196391350e+00
8.321333472102856831e+03	-8.894986055755383703e+00	2.163662679280225802e+02	-8.894975974192060875e+00
8.321336939268803690e+03	-8.895088559500377912e+00	2.163737051211073208e+02	-8.895078171067996919e+00
8.321340406434750548e+03	-8.895194129699801167e+00	2.163813374042636610e+02	-8.895183434806751777e+00
8.321343873600697407e+03	-8.895302762203217029e+00	2.163891644802016287e+02	-8.895291761269978892e+00
8.321347340766644265e+03	-8.895414452739368372e+00	2.163971860440425701e+02	-8.895403146198502142e+00
8.321350807932591124e+03	-8.895529196916385217e+00	2.164054017833319676e+02	-8.895517585212502354e+00
8.321354275098537983e+03	-8.895646990221985462e+00	2.164138113780534241e+02	-8.895635073811723359e+00
8.321357742264484841e+03	-8.895767828023739554e+00	2.164224145006471645e+02	-8.895755607375747331e+00
8.321361209430429881e+03	-8.895891705569072272e+00	2.164312108160103492e+02	-8.895879181164001892e+00
8.321364676596376739e+03	-8.896018617985543386e+00	2.164401999815150930e+02	-8.896005790316028339e+00
8.321368143762323598e+03	-8.896148560281094575e+00	2.164493816470250351e+02	-8.896135429851726784e+00
8.321371610928270456e+03	-8.896281527344131135e+00	2.164587554549009667e+02	-8.896268094671437865e+00
8.321375078094217315e+03	-8.896417513943765343e+00	2.164683210400172584e+02	-8.896403779556196767e+00
8.321378545260164174e+03	-8.896556514730075804e+00	2.164780780297785725e+02	-8.896542479167976580e+00
8.321382012426111032e+03	-8.896698524234198047e+00	2.164880260441263999e+02	-8.896684188049798436e+00
8.321385479592057891e+03	-8.896843536868697555e+00	2.164981646955624228e+02	-8.896828900626070791e+00
8.321388946758004749e+03	-8.896991546927619510e+00	2.165084935891549378e+02	-8.896976611202692453e+00
8.321392413923951608e+03	-8.897142548586847610e+00	2.165190123225571028e+02	-8.897127313967336804e+00
8.321395881089898467e+03	-8.897296535904331449e+00	2.165297204860269176e+02	-8.897281002989741339e+00
8.321399348255845325e+03	-8.897453502820178883e+00	2.165406176624318277e+02	-8.897437672221798266e+00
8.321402815421790365e+03	-8.897613443157059265e+00	2.165517034272734520e+02	-8.897597315497904447e+00
8.321406282587737223e+03	-8.897776350620331343e+00	2.165629773486971885e+02	-8.897759926535131925e+00
8.321409749753684082e+03	-8.897942218798368330e+00	2.165744389875137870e+02	-8.897925498933547672e+00
8.321413216919630941e+03	-8.898111041162737322e+00	2.165860878972101489e+02	-8.898094026176384119e+00
8.321416684085577799e+03	-8.898282811068513709e+00	2.165979236239703596e+02	-8.898265501630355345e+00
8.321420151251524658e+03	-8.898457521754499666e+00	2.166099457066904677e+02	-8.898439918545888005e+00
8.321423618417471516e+03	-8.898635166343506597e+00	2.166221536769934914e+02	-8.898617270057359363e+00
8.321427085583418375e+03	-8.898815737842664220e+00	2.166345470592547429e+02	-8.898797549183477429e+00
8.321430552749365233e+03	-8.898999229143615963e+00	2.166471253706100697e+02	-8.898980748827407083e+00
8.321434019915312092e+03	-8.899185633022900888e+00	2.166598881209822309e+02	-8.899166861777189297e+00
8.321437487081258951e+03	-8.899374942142179279e+00	2.166728348130959603e+02	-8.899355880705966726e+00
8.321440954247205809e+03	-8.899567149048483117e+00	2.166859649424926602e+02	-8.899547798172209312e+00
8.321444421413150849e+03	-8.899762246174548252e+00	2.166992779975535086e+02	-8.899742606620078433e+00
8.321447888579097707e+03	-8.899960225839119943e+00	2.167127734595167681e+02	-8.899940298379696912e+00
8.321451355745044566e+03	-8.900161080247249501e+00	2.167264508024994427e+02	-8.900140865667477641e+00
8.321454822910991425e+03	-8.900364801490608713e+00	2.167403094935156105e+02	-8.900344300586411350e+00
8.321458290076938283e+03	-8.900571381547845107e+00	2.167543489924998994e+02	-8.900550595126437869e+00
8.321461757242885142e+03	-8.900780812284775578e+00	2.167685687523207037e+02	-8.900759741164643302e+00
8.321465224408832000e+03	-8.900993085454764753e+00	2.167829682188026936e+02	-8.900971730465625953e+00
8.321468691574778859e+03	-8.901208192699023414e+00	2.167975468307467679e+02	-8.901186554681789431e+00
8.321472158740725718e+03	-8.901426125547040158e+00	2.168123040199573097e+02	-8.901404205353784960e+00
8.321475625906672576e+03	-8.901646875416789229e+00	2.168272392112564262e+02	-8.901624673910719210e+00
8.321479093072619435e+03	-8.901870433615190592e+00	2.168423518225122280e+02	-8.901847951670607273e+00
8.321482560238566293e+03	-8.902096791338301784e+00	2.168576412646517895e+02	-8.902074029840573388e+00
8.321486027404511333e+03	-8.902325939671801081e+00	2.168731069416909918e+02	-8.902302899517318124e+00
8.321489494570458191e+03	-8.902557869591237960e+00	2.168887482507522009e+02	-8.902534551687395492e+00
8.321492961736405050e+03	-8.902792571962500290e+00	2.169045645820906145e+02	-8.902768977227625058e+00
8.321496428902351909e+03	-8.903030037542036368e+00	2.169205553191143849e+02	-8.903006166905408136e+00
8.321499896068298767e+03	-8.903270256977283026e+00	2.169367198384043718e+02	-8.903246111379045757e+00
8.321503363234245626e+03	-8.903513220807120376e+00	2.169530575097487315e+02	-8.903488801198266245e+00
8.321506830400192484e+03	-8.903758919462051225e+00	2.169695676961522395e+02	-8.903734226804390417e+00
8.321510297566139343e+03	-8.904007343264764174e+00	2.169862497538711636e+02	-8.903982378530868047e+00
8.321513764732086202e+03	-8.904258482430417843e+00	2.170031030324334154e+02	-8.904233246603601160e+00
8.321517231898033060e+03	-8.904512327067017452e+00	2.170201268746608889e+02	-8.904486821141290420e+00
8.321520699063979919e+03	-8.904768867175844704e+00	2.170373206166971727e+02	-8.904743092155875672e+00
8.321524166229926777e+03	-8.905028092651877003e+00	2.170546835880323044e+02	-8.905002049552932064e+00
8.321527633395871817e+03	-8.905289993284133843e+00	2.170722151115298004e+02	-8.905263683132076835e+00
8.321531100561818675e+03	-8.905554558756023198e+00	2.170899145034422588e+02	-8.905527982587246427e+00
8.321534567727765534e+03	-8.905821778645867326e+00	2.171077810734489333e+02	-8.905794937507259590e+00
8.321538034893712393e+03	-8.906091642427234945e+00	2.171258141246745197e+02	-8.906064537376137125e+00
8.321541502059659251e+03	-8.906364139469356900e+00	2.171440129537176631e+02	-8.906336771573535316e+00
8.321544969225606110e+03	-8.906639259037619993e+00	2.171623768506784984e+02	-8.906611629375191796e+00
8.321548436391552968e+03	-8.906916990293900938e+00	2.171809050991848267e+02	-8.906889099953334110e+00
8.321551903557499827e+03	-8.907197322296969588e+00	2.171995969764117262e+02	-8.907169172377001232e+00
8.321555370723446686e+03	-8.907480244003057379e+00	2.172184517531226504e+02	-8.907451835612670621e+00
8.321558837889393544e+03	-8.907765744266166408e+00	2.172374686936862531e+02	-8.907737078524551322e+00
8.321562305055340403e+03	-8.908053811838614777e+00	2.172566470561109213e+02	-8.908024889875106211e+00
8.321565772221287261e+03	-8.908344435371200021e+00	2.172759860920567121e+02	-8.908315258325272268e+00
8.321569239387232301e+03	-8.908637603413922079e+00	2.172954850468770189e+02	-8.908608172435094730e+00
8.321572706553179160e+03	-8.908933304416578380e+00	2.173151431596588452e+02	-8.908903620664361256e+00
8.321576173719126018e+03	-8.909231526729065820e+00	2.173349596632456837e+02	-8.909201591372971407e+00
8.321579640885072877e+03	-8.909532258601563726e+00	2.173549337842424052e+02	-8.909502072821032570e+00
8.321583108051019735e+03	-8.909835488185281704e+00	2.173750647430651384e+02	-8.909805053169632671e+00
8.321586575216966594e+03	-8.910141203532853993e+00	2.173953517539669633e+02	-8.910110520481252294e+00
8.321590042382913452e+03	-8.910449392598811968e+00	2.174157940250654519e+02	-8.910418462720203436e+00
8.321593509548860311e+03	-8.910760043239982053e+00	2.174363907583706350e+02	-8.910728867753071825e+00
8.321596976714807170e+03	-8.911073143216112769e+00	2.174571411498199041e+02	-8.911041723349271138e+00
8.321600443880754028e+03	-8.911388680190292177e+00	2.174780443893099857e+02	-8.911357017181549267e+00
8.321603911046700887e+03	-8.911706641729487899e+00	2.174990996607275235e+02	-8.911674736826466159e+00
8.321607378212647745e+03	-8.912027015304857969e+00	2.175203061419690300e+02	-8.911994869764731320e+00
8.321610845378592785e+03	-8.912349788292399211e+00	2.175416630049825528e+02	-8.912317403381845082e+00
8.321614312544539644e+03	-8.912674947973387773e+00	2.175631694157928564e+02	-8.912642324968516050e+00
8.321617779710486502e+03	-8.913002481534890720e+00	2.175848245345376881e+02	-8.912969621721222424e+00
8.321621246876433361e+03	-8.913332376070338015e+00	2.176066275155003211e+02	-8.913299280742734254e+00
8.321624714042380219e+03	-8.913664618579934640e+00	2.176285775071373507e+02	-8.913631289042552197e+00
8.321628181208327078e+03	-8.913999195971170408e+00	2.176506736521096457e+02	-8.913965633537415556e+00
8.321631648374273936e+03	-8.914336095059359977e+00	2.176729150873174490e+02	-8.914302301051838739e+00
8.321635115540220795e+03	-8.914675302568221937e+00	2.176953009439346545e+02	-8.914641278318663709e+00
8.321638582706167654e+03	-8.915016805130377975e+00	2.177178303474431686e+02	-8.914982551979608871e+00
8.321642049872114512e+03	-8.915360589287768533e+00	2.177405024176570976e+02	-8.915326108585658105e+00
8.321645517038061371e+03	-8.915706641492255002e+00	2.177633162687613151e+02	-8.915671934597662940e+00
8.321648984204008229e+03	-8.916054948106244993e+00	2.177862710093483258e+02	-8.916020016386935865e+00
8.321652451369953269e+03	-8.916405495403127546e+00	2.178093657424503533e+02	-8.916370340235753034e+00
8.321655918535900128e+03	-8.916758269567615969e+00	2.178325995655584109e+02	-8.916722892337679340e+00
8.321659385701846986e+03	-8.917113256696566737e+00	2.178559715706701070e+02	-8.917077658798312711e+00
8.321662852867793845e+03	-8.917470442799773522e+00	2.178794808443438740e+02	-8.917434625636120771e+00
8.321666320033740703e+03	-8.917829813800130623e+00	2.179031264677136051e+02	-8.917793778782710845e+00
8.321669787199687562e+03	-8.918191355534114351e+00	2.179269075165083507e+02	-8.918155104083133722e+00
8.321673254365634421e+03	-8.918555053752587725e+00	2.179508230611103556e+02	-8.918518587296800249e+00
8.321676721531581279e+03	-8.918920894121203702e+00	2.179748721665781943e+02	-8.918884214097863250e+00
8.321680188697528138e+03	-8.919288862221037562e+00	2.179990538926862484e+02	-8.919251970075830371e+00
8.321683655863474996e+03	-8.919658943549071850e+00	2.180233672939550900e+02	-8.919621840736056129e+00
8.321687123029421855e+03	-8.920031123518988636e+00	2.180478114197020147e+02	-8.919993811500535941e+00
8.321690590195368713e+03	-8.920405387461556757e+00	2.180723853140661674e+02	-8.920367867708312914e+00
8.321694057361313753e+03	-8.920781720625102551e+00	2.180970880160354000e+02	-8.920743994615913053e+00
8.321697524527260612e+03	-8.921160108176460213e+00	2.181219185595072645e+02	-8.921122177398295605e+00
8.321700991693207470e+03	-8.921540535201250677e+00	2.181468759733099887e+02	-8.921502401149195904e+00
8.321704458859154329e+03	-8.921922986704490910e+00	2.181719592812348196e+02	-8.921884650881647616e+00
8.321707926025101187e+03	-8.922307447611323994e+00	2.181971675020852217e+02	-8.922268911528757229e+00
8.321711393191048046e+03	-8.922693902767504071e+00	2.182224996497077711e+02	-8.922655167944190779e+00
8.321714860356994905e+03	-8.923082336940021619e+00	2.182479547330304399e+02	-8.923043404902793796e+00
8.321718327522941763e+03	-8.923472734817657681e+00	2.182735317560974408e+02	-8.923433607101138421e+00
8.321721794688888622e+03	-8.923865081011621569e+00	2.182992297181085348e+02	-8.923825759158152238e+00
8.321725261854835480e+03	-8.924259360056398194e+00	2.183250476134746805e+02	-8.924219845615986912e+00
8.321728729020782339e+03	-8.924655556409819113e+00	2.183509844318222122e+02	-8.924615850940112338e+00
8.321732196186729198e+03	-8.925053654453993346e+00	2.183770391580463865e+02	-8.925013759520155077e+00
8.321735663352674237e+03	-8.925453638496026798e+00	2.184032107723629395e+02	-8.925413555670710153e+00
8.321739130518621096e+03	-8.925855492768533850e+00	2.184294982503374740e+02	-8.925815223631811790e+00
8.321742597684567954e+03	-8.926259201430195134e+00	2.184559005629216983e+02	-8.926218747569507173e+00
8.321746064850514813e+03	-8.926664748566473406e+00	2.184824166764967686e+02	-8.926624111576559883e+00
8.321749532016461671e+03	-8.927072118190155336e+00	2.185090455529079350e+02	-8.927031299672982811e+00
8.321752999182408530e+03	-8.927481294242019416e+00	2.185357861495076008e+02	-8.927440295806725601e+00
8.321756466348355389e+03	-8.927892260591530516e+00	2.185626374191984951e+02	-8.927851083854372760e+00
8.321759933514302247e+03	-8.928305001037298183e+00	2.185895983104617812e+02	-8.928263647621575316e+00
8.321763400680249106e+03	-8.928719499307943508e+00	2.186166677674121956e+02	-8.928677970843931888e+00
8.321766867846195964e+03	-8.929135739062626698e+00	2.186438447298314998e+02	-8.929094037187518040e+00
8.321770335012142823e+03	-8.929553703891640382e+00	2.186711281332057126e+02	-8.929511830249481363e+00
8.321773802178089682e+03	-8.929973377317157457e+00	2.186985169087717225e+02	-8.929931333558778661e+00
8.321777269344034721e+03	-8.930394742793806628e+00	2.187260099835543770e+02	-8.930352530576765702e+00
8.321780736509981580e+03	-8.930817783709317226e+00	2.187536062804073538e+02	-8.930775404697842035e+00
8.321784203675928438e+03	-8.931242483385174680e+00	2.187813047180507624e+02	-8.931199939250060282e+00
8.321787670841875297e+03	-8.931668825077503371e+00	2.188091042111327340e+02	-8.931626117496078265e+00
8.321791138007822155e+03	-8.932096791977347294e+00	2.188370036702434618e+02	-8.932053922633405918e+00
8.321794605173769014e+03	-8.932526367211602647e+00	2.188650020019744034e+02	-8.932483337795330769e+00
8.321798072339715873e+03	-8.932957533843543629e+00	2.188930981089510794e+02	-8.932914346051449073e+00
8.321801539505662731e+03	-8.933390274873556081e+00	2.189212908898813623e+02	-8.933346930408422537e+00
8.321805006671609590e+03	-8.933824573239810718e+00	2.189495792395943283e+02	-8.933781073810592943e+00
8.321808473837556448e+03	-8.934260411818803149e+00	2.189779620490791388e+02	-8.934216759140609199e+00
8.321811941003503307e+03	-8.934697773426286460e+00	2.190064382055381600e+02	-8.934653969220258674e+00
8.321815408169450166e+03	-8.935136640817745501e+00	2.190350065924222918e+02	-8.935092686811023199e+00
8.321818875335395205e+03	-8.935576996689155393e+00	2.190636660894753334e+02	-8.935532894614800270e+00
8.321822342501342064e+03	-8.936018823677651213e+00	2.190924155727778952e+02	-8.935974575274579834e+00
8.321825809667288922e+03	-8.936462104362140835e+00	2.191212539147862515e+02	-8.936417711375067796e+00
8.321829276833235781e+03	-8.936906821264114953e+00	2.191501799843802303e+02	-8.936862285443446297e+00
8.321832743999182640e+03	-8.937352956848172880e+00	2.191791926469024929e+02	-8.937308279949993661e+00
8.321836211165129498e+03	-8.937800493522910728e+00	2.192082907642081011e+02	-8.937755677308864222e+00
8.321839678331076357e+03	-8.938249413641463192e+00	2.192374731947026874e+02	-8.938204459878701158e+00
8.321843145497023215e+03	-8.938699699502256735e+00	2.192667387933908287e+02	-8.938654609963391451e+00
8.321846612662970074e+03	-8.939151333349723672e+00	2.192960864119166047e+02	-8.939106109812716028e+00
8.321850079828916932e+03	-8.939604297374952324e+00	2.193255148986092991e+02	-8.939558941623070965e+00
8.321853546994863791e+03	-8.940058573716468615e+00	2.193550230985311202e+02	-8.940013087538213554e+00
8.321857014160810650e+03	-8.940514144460848911e+00	2.193846098535150873e+02	-8.940468529649873375e+00
8.321860481326755689e+03	-8.940970991643499843e+00	2.194142740022161036e+02	-8.940925249998553426e+00
8.321863948492702548e+03	-8.941429097249319113e+00	2.194440143801509748e+02	-8.941383230574158958e+00
8.321867415658649406e+03	-8.941888443213359849e+00	2.194738298197420363e+02	-8.941842453316699135e+00
8.321870882824596265e+03	-8.942349011421628191e+00	2.195037191503665781e+02	-8.942302900117057973e+00
8.321874349990543124e+03	-8.942810783711793832e+00	2.195336811984019789e+02	-8.942764552817703105e+00
