# time(us)	tip(nm)	Fts(nN)	Xb(nm)
8.321201719796881662e+03	-1.963421925954312863e+00	1.310672501055875827e+01	-1.963427019475324276e+00
8.321205186962828520e+03	-1.963374522336472028e+00	1.310619989432928634e+01	-1.963378973721601861e+00
8.321208654128775379e+03	-1.963333541062727505e+00	1.310586802479904378e+01	-1.963337350136617143e+00
8.321212121294722238e+03	-1.963298983747961968e+00	1.310572941076341635e+01	-1.963302150360470621e+00
8.321215588460669096e+03	-1.963270851754863155e+00	1.310578405439279415e+01	-1.963273375781073860e+00
8.321219055626615955e+03	-1.963249146193849937e+00	1.310603195123235309e+01	-1.963251027534073767e+00
8.321222522792562813e+03	-1.963233867923033671e+00	1.310647309020280638e+01	-1.963235106502813299e+00
8.321225989958509672e+03	-1.963225017548198448e+00	1.310710745360150753e+01	-1.963225613318311691e+00
8.321229457124456530e+03	-1.963222595422767780e+00	1.310793501710285724e+01	-1.963222548359229824e+00
8.321232924290403389e+03	-1.963226601647787062e+00	1.310895574975906364e+01	-1.963225911751850017e+00
8.321236391456348429e+03	-1.963237036071914909e+00	1.311016961400103398e+01	-1.963235703370070473e+00
8.321239858622295287e+03	-1.963253898291438482e+00	1.311157656563955420e+01	-1.963251922835413055e+00
8.321243325788242146e+03	-1.963277187650290800e+00	1.311317655386670644e+01	-1.963274569517048374e+00
8.321246792954189004e+03	-1.963306903240058299e+00	1.311496952125635396e+01	-1.963303642531793125e+00
8.321250260120135863e+03	-1.963343043900033225e+00	1.311695540376618396e+01	-1.963339140744168709e+00
8.321253727286082722e+03	-1.963385608217246947e+00	1.311913413073874857e+01	-1.963381062766430762e+00
8.321257194452029580e+03	-1.963434594526530130e+00	1.312150562490306527e+01	-1.963429406958625778e+00
8.321260661617976439e+03	-1.963490000910576017e+00	1.312406980237640397e+01	-1.963484171428659275e+00
8.321264128783923297e+03	-1.963551825200005263e+00	1.312682657266562636e+01	-1.963545354032354640e+00
8.321267595949870156e+03	-1.963620064973458756e+00	1.312977583866921094e+01	-1.963612952373546161e+00
8.321271063115817014e+03	-1.963694717557685765e+00	1.313291749667926034e+01	-1.963686963804169183e+00
8.321274530281763873e+03	-1.963775780027647855e+00	1.313625143638323323e+01	-1.963767385424358469e+00
8.321277997447708913e+03	-1.963863249206625916e+00	1.313977754086614880e+01	-1.963854214082557226e+00
8.321281464613655771e+03	-1.963957121666343619e+00	1.314349568661264733e+01	-1.963947446375639894e+00
8.321284931779602630e+03	-1.964057393727111744e+00	1.314740574350976843e+01	-1.964047078649052258e+00
8.321288398945549488e+03	-1.964164061457943422e+00	1.315150757484850530e+01	-1.964153106996930021e+00
8.321291866111496347e+03	-1.964277120676721999e+00	1.315580103732684236e+01	-1.964265527262263777e+00
8.321295333277443206e+03	-1.964396566950356915e+00	1.316028598105207514e+01	-1.964384335037050899e+00
8.321298800443390064e+03	-1.964522395594965110e+00	1.316496224954397753e+01	-1.964509525662480494e+00
8.321302267609336923e+03	-1.964654601676032897e+00	1.316982967973705243e+01	-1.964641094229094831e+00
8.321305734775283781e+03	-1.964793180008611584e+00	1.317488810198337923e+01	-1.964779035576978083e+00
8.321309201941230640e+03	-1.964938125157519533e+00	1.318013734005591964e+01	-1.964923344295963270e+00
8.321312669107177499e+03	-1.965089431437547329e+00	1.318557721115143977e+01	-1.965074014725835427e+00
8.321316136273124357e+03	-1.965247092913679605e+00	1.319120752589360990e+01	-1.965231040956547881e+00
8.321319603439069397e+03	-1.965411103401325299e+00	1.319702808833658558e+01	-1.965394416828456503e+00
8.321323070605016255e+03	-1.965581456466546362e+00	1.320303869596809854e+01	-1.965564135932549306e+00
8.321326537770963114e+03	-1.965758145426311776e+00	1.320923913971292407e+01	-1.965740191610689802e+00
8.321330004936909972e+03	-1.965941163348749354e+00	1.321562920393666118e+01	-1.965922576955881240e+00
8.321333472102856831e+03	-1.966130503053415968e+00	1.322220866644925152e+01	-1.966111284812523508e+00
8.321336939268803690e+03	-1.966326157111567330e+00	1.322897729850877724e+01	-1.966306307776690243e+00
8.321340406434750548e+03	-1.966528117846450652e+00	1.323593486482549331e+01	-1.966507638196417052e+00
8.321343873600697407e+03	-1.966736377333595520e+00	1.324308112356567513e+01	-1.966715268171989717e+00
8.321347340766644265e+03	-1.966950927401119209e+00	1.325041582635598125e+01	-1.966929189556255508e+00
8.321350807932591124e+03	-1.967171759630046202e+00	1.325793871828749282e+01	-1.967149393954931824e+00
8.321354275098537983e+03	-1.967398865354627491e+00	1.326564953792026813e+01	-1.967375872726932817e+00
8.321357742264484841e+03	-1.967632235662661655e+00	1.327354801728720801e+01	-1.967608616984687142e+00
8.321361209430429881e+03	-1.967871861395853461e+00	1.328163388189912553e+01	-1.967847617594492782e+00
8.321364676596376739e+03	-1.968117733150166471e+00	1.328990685074949241e+01	-1.968092865176871653e+00
8.321368143762323598e+03	-1.968369841276176757e+00	1.329836663631893323e+01	-1.968344350106922214e+00
8.321371610928270456e+03	-1.968628175879443054e+00	1.330701294458012107e+01	-1.968602062514688278e+00
8.321375078094217315e+03	-1.968892726820890671e+00	1.331584547500279925e+01	-1.968865992285539601e+00
8.321378545260164174e+03	-1.969163483717218943e+00	1.332486392055950297e+01	-1.969136129060580886e+00
8.321382012426111032e+03	-1.969440435941267609e+00	1.333406796772997893e+01	-1.969412462237021710e+00
8.321385479592057891e+03	-1.969723572622438912e+00	1.334345729650648060e+01	-1.969694980968586195e+00
8.321388946758004749e+03	-1.970012882647125041e+00	1.335303158040000149e+01	-1.969983674165951104e+00
8.321392413923951608e+03	-1.970308354659125794e+00	1.336279048644520806e+01	-1.970278530497153513e+00
8.321395881089898467e+03	-1.970609977060093332e+00	1.337273367520668899e+01	-1.970579538388042673e+00
8.321399348255845325e+03	-1.970917738009966280e+00	1.338286080078416163e+01	-1.970886686022706336e+00
8.321402815421790365e+03	-1.971231625427447343e+00	1.339317151081923640e+01	-1.971199961343951257e+00
8.321406282587737223e+03	-1.971551626990452943e+00	1.340366544650100700e+01	-1.971519352053750840e+00
8.321409749753684082e+03	-1.971877730136581963e+00	1.341434224257210239e+01	-1.971844845613714758e+00
8.321413216919630941e+03	-1.972209922063608678e+00	1.342520152733519723e+01	-1.972176429245576346e+00
8.321416684085577799e+03	-1.972548189729975698e+00	1.343624292265963405e+01	-1.972514089931690195e+00
8.321420151251524658e+03	-1.972892519855292015e+00	1.344746604398774359e+01	-1.972857814415525768e+00
8.321423618417471516e+03	-1.973242898920849253e+00	1.345887050034172105e+01	-1.973207589202181644e+00
8.321427085583418375e+03	-1.973599313170134151e+00	1.347045589433037271e+01	-1.973563400558903336e+00
8.321430552749365233e+03	-1.973961748609371902e+00	1.348222182215626574e+01	-1.973925234515616634e+00
8.321434019915312092e+03	-1.974330191008053959e+00	1.349416787362273418e+01	-1.974293076865462959e+00
8.321437487081258951e+03	-1.974704625899494470e+00	1.350629363214112288e+01	-1.974666913165347593e+00
8.321440954247205809e+03	-1.975085038581379404e+00	1.351859867473823584e+01	-1.975046728736495893e+00
8.321444421413150849e+03	-1.975471414116344970e+00	1.353108257206388920e+01	-1.975432508665022624e+00
8.321447888579097707e+03	-1.975863737332544279e+00	1.354374488839847146e+01	-1.975824237802502159e+00
8.321451355745044566e+03	-1.976261992824230651e+00	1.355658518166072568e+01	-1.976221900766552686e+00
8.321454822910991425e+03	-1.976666164952343818e+00	1.356960300341536119e+01	-1.976625481941417517e+00
8.321458290076938283e+03	-1.977076237845132312e+00	1.358279789888166711e+01	-1.977034965478586370e+00
8.321461757242885142e+03	-1.977492195398760533e+00	1.359616940694176357e+01	-1.977450335297404882e+00
8.321465224408832000e+03	-1.977914021277922485e+00	1.360971706014864147e+01	-1.977871575085685896e+00
8.321468691574778859e+03	-1.978341698916478819e+00	1.362344038473486663e+01	-1.978298668300344509e+00
8.321472158740725718e+03	-1.978775211518097210e+00	1.363733890062138876e+01	-1.978731598168039785e+00
8.321475625906672576e+03	-1.979214542056891846e+00	1.365141212142595606e+01	-1.979170347685810016e+00
8.321479093072619435e+03	-1.979659673278072685e+00	1.366565955447203606e+01	-1.979614899621727320e+00
8.321482560238566293e+03	-1.980110587698641345e+00	1.368008070079859984e+01	-1.980065236515582860e+00
8.321486027404511333e+03	-1.980567267608042581e+00	1.369467505516888828e+01	-1.980521340679546993e+00
8.321489494570458191e+03	-1.981029695068842633e+00	1.370944210607962077e+01	-1.980983194198842723e+00
8.321492961736405050e+03	-1.981497851917434438e+00	1.372438133577092678e+01	-1.981450778932449586e+00
8.321496428902351909e+03	-1.981971719764730633e+00	1.373949222023582095e+01	-1.981924076513795319e+00
8.321499896068298767e+03	-1.982451279996883864e+00	1.375477422923047754e+01	-1.982403068351477282e+00
8.321503363234245626e+03	-1.982936513776004439e+00	1.377022682628417805e+01	-1.982887735629976556e+00
8.321506830400192484e+03	-1.983427402040885301e+00	1.378584946870954120e+01	-1.983378059310385133e+00
8.321510297566139343e+03	-1.983923925507735442e+00	1.380164160761274239e+01	-1.983874020131136451e+00
8.321513764732086202e+03	-1.984426064670916645e+00	1.381760268790398349e+01	-1.984375598608745905e+00
8.321517231898033060e+03	-1.984933799803713761e+00	1.383373214830836062e+01	-1.984882775038568914e+00
8.321520699063979919e+03	-1.985447110959084327e+00	1.385002942137668214e+01	-1.985395529495561640e+00
8.321524166229926777e+03	-1.985965977970443053e+00	1.386649393349684622e+01	-1.985913841835059257e+00
8.321527633395871817e+03	-1.986490380452427651e+00	1.388312510490465712e+01	-1.986437691693542229e+00
8.321531100561818675e+03	-1.987020297801687096e+00	1.389992234969510498e+01	-1.986967058489420124e+00
8.321534567727765534e+03	-1.987555709197690090e+00	1.391688507583452505e+01	-1.987501921423846074e+00
8.321538034893712393e+03	-1.988096593603515316e+00	1.393401268517172120e+01	-1.988042259481500595e+00
8.321541502059659251e+03	-1.988642929766677891e+00	1.395130457345030806e+01	-1.988588051431418036e+00
8.321544969225606110e+03	-1.989194696219941383e+00	1.396876013032061081e+01	-1.989139275827800812e+00
8.321548436391552968e+03	-1.989751871282154694e+00	1.398637873935197184e+01	-1.989695911010849860e+00
8.321551903557499827e+03	-1.990314433059083399e+00	1.400415977804521361e+01	-1.990257935107602627e+00
8.321555370723446686e+03	-1.990882359444262173e+00	1.402210261784526679e+01	-1.990825326032779286e+00
8.321558837889393544e+03	-1.991455628119850552e+00	1.404020662415399556e+01	-1.991398061489635163e+00
8.321562305055340403e+03	-1.992034216557493798e+00	1.405847115634339417e+01	-1.991976118970831378e+00
8.321565772221287261e+03	-1.992618102019194204e+00	1.407689556776834650e+01	-1.992559475759291709e+00
8.321569239387232301e+03	-1.993207261558194165e+00	1.409547920578058289e+01	-1.993148108929097662e+00
8.321572706553179160e+03	-1.993801672019866800e+00	1.411422141174195133e+01	-1.993741995346367535e+00
8.321576173719126018e+03	-1.994401310042601461e+00	1.413312152103801544e+01	-1.994341111670148603e+00
8.321579640885072877e+03	-1.995006152058714122e+00	1.415217886309227779e+01	-1.994945434353323499e+00
8.321583108051019735e+03	-1.995616174295360645e+00	1.417139276138015447e+01	-1.995554939643521930e+00
8.321586575216966594e+03	-1.996231352775464263e+00	1.419076253344377037e+01	-1.996169603584049934e+00
8.321590042382913452e+03	-1.996851663318629289e+00	1.421028749090592846e+01	-1.996789402014802262e+00
8.321593509548860311e+03	-1.997477081542093247e+00	1.422996693948523728e+01	-1.997414310573208063e+00
8.321596976714807170e+03	-1.998107582861665454e+00	1.424980017901121165e+01	-1.998044304695179685e+00
8.321600443880754028e+03	-1.998743142492670266e+00	1.426978650343882116e+01	-1.998679359616045925e+00
8.321603911046700887e+03	-1.999383735450923849e+00	1.428992520086441509e+01	-1.999319450371528806e+00
8.321607378212647745e+03	-2.000029336553691639e+00	1.431021555354115726e+01	-1.999964551798706802e+00
8.321610845378592785e+03	-2.000679920420666669e+00	1.433065683789465794e+01	-2.000614638536984735e+00
8.321614312544539644e+03	-2.001335461474959665e+00	1.435124832453925947e+01	-2.001269685029088752e+00
8.321617779710486502e+03	-2.001995933944075823e+00	1.437198927829370021e+01	-2.001929665522038437e+00
8.321621246876433361e+03	-2.002661311860935989e+00	1.439287895819821728e+01	-2.002594554068167998e+00
8.321624714042380219e+03	-2.003331569064869200e+00	1.441391661753080378e+01	-2.003264324526120799e+00
8.321628181208327078e+03	-2.004006679202622543e+00	1.443510150382377333e+01	-2.003938950561855226e+00
8.321631648374273936e+03	-2.004686615729399435e+00	1.445643285888138152e+01	-2.004618405649683854e+00
8.321635115540220795e+03	-2.005371351909875255e+00	1.447790991879662315e+01	-2.005302663073288194e+00
8.321638582706167654e+03	-2.006060860819242730e+00	1.449953191396891761e+01	-2.005991695926761409e+00
8.321642049872114512e+03	-2.006755115344260432e+00	1.452129806912203058e+01	-2.006685477115658589e+00
8.321645517038061371e+03	-2.007454088184296825e+00	1.454320760332170082e+01	-2.007383979358039916e+00
8.321648984204008229e+03	-2.008157751852384987e+00	1.456525972999365415e+01	-2.008087175185525375e+00
8.321652451369953269e+03	-2.008866078676307509e+00	1.458745365694237606e+01	-2.008795036944370782e+00
8.321655918535900128e+03	-2.009579040799663652e+00	1.460978858636979361e+01	-2.009507536796549143e+00
8.321659385701846986e+03	-2.010296610182940480e+00	1.463226371489347954e+01	-2.010224646720808472e+00
8.321662852867793845e+03	-2.011018758604621759e+00	1.465487823356644093e+01	-2.010946338513782017e+00
8.321666320033740703e+03	-2.011745457662270198e+00	1.467763132789603908e+01	-2.011672583791077162e+00
8.321669787199687562e+03	-2.012476678773634564e+00	1.470052217786349402e+01	-2.012403353988372334e+00
8.321673254365634421e+03	-2.013212393177763015e+00	1.472354995794388088e+01	-2.013138620362537434e+00
8.321676721531581279e+03	-2.013952571936112435e+00	1.474671383712565209e+01	-2.013878353992736958e+00
8.321680188697528138e+03	-2.014697185933687074e+00	1.477001297893142429e+01	-2.014622525781569973e+00
8.321683655863474996e+03	-2.015446205880155883e+00	1.479344654143801563e+01	-2.015371106456187444e+00
8.321687123029421855e+03	-2.016199602311001815e+00	1.481701367729733043e+01	-2.016124066569439766e+00
8.321690590195368713e+03	-2.016957345588670236e+00	1.484071353375750313e+01	-2.016881376501023837e+00
8.321694057361313753e+03	-2.017719405903710683e+00	1.486454525268369942e+01	-2.017643006458627042e+00
8.321697524527260612e+03	-2.018485753275942596e+00	1.488850797057969544e+01	-2.018408926479089427e+00
8.321700991693207470e+03	-2.019256357555627268e+00	1.491260081860975895e+01	-2.019179106429576098e+00
8.321704458859154329e+03	-2.020031188424628699e+00	1.493682292262011480e+01	-2.019953516008736294e+00
8.321707926025101187e+03	-2.020810215397598419e+00	1.496117340316132172e+01	-2.020732124747890435e+00
8.321711393191048046e+03	-2.021593407823175870e+00	1.498565137551107007e+01	-2.021514902012226500e+00
8.321714860356994905e+03	-2.022380734885157239e+00	1.501025594969602572e+01	-2.022301817001969315e+00
8.321718327522941763e+03	-2.023172165603709605e+00	1.503498623051524241e+01	-2.023092838753595135e+00
8.321721794688888622e+03	-2.023967668836581524e+00	1.505984131756336097e+01	-2.023887936141040900e+00
8.321725261854835480e+03	-2.024767213280302069e+00	1.508482030525365580e+01	-2.024687077876901942e+00
8.321728729020782339e+03	-2.025570767471413625e+00	1.510992228284202454e+01	-2.025490232513664335e+00
8.321732196186729198e+03	-2.026378299787691351e+00	1.513514633445075042e+01	-2.026297368444924807e+00
8.321735663352674237e+03	-2.027189778449385749e+00	1.516049153909289338e+01	-2.027108453906631080e+00
8.321739130518621096e+03	-2.028005171520433692e+00	1.518595697069600625e+01	-2.027923456978295125e+00
8.321742597684567954e+03	-2.028824446909739176e+00	1.521154169812764501e+01	-2.028742345584266804e+00
8.321746064850514813e+03	-2.029647572372394126e+00	1.523724478521974923e+01	-2.029565087494965780e+00
8.321749532016461671e+03	-2.030474515510953815e+00	1.526306529079391439e+01	-2.030391650328140507e+00
8.321752999182408530e+03	-2.031305243776694081e+00	1.528900226868706902e+01	-2.031222001550140988e+00
8.321756466348355389e+03	-2.032139724470884978e+00	1.531505476777698682e+01	-2.032056108477179102e+00
8.321759933514302247e+03	-2.032977924746053766e+00	1.534122183200803846e+01	-2.032893938276597812e+00
8.321763400680249106e+03	-2.033819811607287864e+00	1.536750250041800925e+01	-2.033735457968172344e+00
8.321766867846195964e+03	-2.034665351913508058e+00	1.539389580716416006e+01	-2.034580634425382506e+00
8.321770335012142823e+03	-2.035514512378758578e+00	1.542040078154979987e+01	-2.035429434376699653e+00
8.321773802178089682e+03	-2.036367259573506505e+00	1.544701644805146223e+01	-2.036281824406891872e+00
8.321777269344034721e+03	-2.037223559925961602e+00	1.547374182634635531e+01	-2.037137770958334038e+00
8.321780736509981580e+03	-2.038083379723375721e+00	1.550057593133987055e+01	-2.037997240332316107e+00
8.321784203675928438e+03	-2.038946685113352419e+00	1.552751777319296878e+01	-2.038860198690346959e+00
8.321787670841875297e+03	-2.039813442105183228e+00	1.555456635735064985e+01	-2.039726612055488442e+00
8.321791138007822155e+03	-2.040683616571171921e+00	1.558172068457035131e+01	-2.040596446313684531e+00
8.321794605173769014e+03	-2.041557174247965012e+00	1.560897975095034873e+01	-2.041469667215086936e+00
8.321798072339715873e+03	-2.042434080737891566e+00	1.563634254795864109e+01	-2.042346240375394917e+00
8.321801539505662731e+03	-2.043314301510307018e+00	1.566380806246217361e+01	-2.043226131277202651e+00
8.321805006671609590e+03	-2.044197801902943201e+00	1.569137527675615296e+01	-2.044109305271342603e+00
8.321808473837556448e+03	-2.045084547123266372e+00	1.571904316859382789e+01	-2.044995727578244882e+00
8.321811941003503307e+03	-2.045974502249828575e+00	1.574681071121630360e+01	-2.045885363289293934e+00
8.321815408169450166e+03	-2.046867632233646095e+00	1.577467687338292812e+01	-2.046778177368197671e+00
8.321818875335395205e+03	-2.047763901899557926e+00	1.580264061940154185e+01	-2.047674134652349043e+00
8.321822342501342064e+03	-2.048663275947603335e+00	1.583070090915933470e+01	-2.048573199854208049e+00
8.321825809667288922e+03	-2.049565718954405202e+00	1.585885669815376176e+01	-2.049475337562674859e+00
8.321829276833235781e+03	-2.050471195374570232e+00	1.588710693752440406e+01	-2.050380512244494913e+00
8.321832743999182640e+03	-2.051379669542058526e+00	1.591545057408405661e+01	-2.051288688245632930e+00
8.321836211165129498e+03	-2.052291105671590454e+00	1.594388655035044344e+01	-2.052199829792667352e+00
8.321839678331076357e+03	-2.053205467860042432e+00	1.597241380457870541e+01	-2.053113900994196772e+00
8.321843145497023215e+03	-2.054122720087858234e+00	1.600103127079363219e+01	-2.054030865842245479e+00
8.321846612662970074e+03	-2.055042826220453200e+00	1.602973787882228152e+01	-2.054950688213668109e+00
8.321850079828916932e+03	-2.055965750009632220e+00	1.605853255432690929e+01	-2.055873331871566290e+00
8.321853546994863791e+03	-2.056891455095013921e+00	1.608741421883835798e+01	-2.056798760466712839e+00
8.321857014160810650e+03	-2.057819905005452643e+00	1.611638178978955693e+01	-2.057726937538974621e+00
8.321860481326755689e+03	-2.058751063160453754e+00	1.614543418054875445e+01	-2.058657826518728307e+00
8.321863948492702548e+03	-2.059684892871630257e+00	1.617457030045423849e+01	-2.059591390728310323e+00
8.321867415658649406e+03	-2.060621357344127880e+00	1.620378905484836096e+01	-2.060527593383448597e+00
8.321870882824596265e+03	-2.061560419678071909e+00	1.623308934511218737e+01	-2.061466397594705402e+00
8.321874349990543124e+03	-2.062502042870014041e+00	1.626247006870037026e+01	-2.062407766368925088e+00
