# time(us)	tip(nm)	Fts(nN)	Xb(nm)
8.321201719796881662e+03	-2.584052895480140943e+00	2.508523480326329747e+01	-2.584057104215765399e+00
8.321205186962828520e+03	-2.584013927958904944e+00	2.508479491213633850e+01	-2.584017569428569416e+00
8.321208654128775379e+03	-2.583980633906135971e+00	2.508455088062406801e+01	-2.583983707966120758e+00
8.321212121294722238e+03	-2.583953014636322099e+00	2.508450271577115842e+01	-2.583955521165215874e+00
8.321215588460669096e+03	-2.583931071240874733e+00	2.508465041757709457e+01	-2.583933010139579434e+00
8.321219055626615955e+03	-2.583914804588051339e+00	2.508499397899513994e+01	-2.583916175779781277e+00
8.321222522792562813e+03	-2.583904215322955888e+00	2.508553338593421955e+01	-2.583905018753243521e+00
8.321225989958509672e+03	-2.583899303867478459e+00	2.508626861725850077e+01	-2.583899539504181941e+00
8.321229457124456530e+03	-2.583900070420286799e+00	2.508719964478790132e+01	-2.583899738253582878e+00
8.321232924290403389e+03	-2.583906514956835210e+00	2.508832643330023870e+01	-2.583905614999224554e+00
8.321236391456348429e+03	-2.583918637229347226e+00	2.508964894053141848e+01	-2.583917169515651313e+00
8.321239858622295287e+03	-2.583936436766831157e+00	2.509116711717715376e+01	-2.583934401354194499e+00
8.321243325788242146e+03	-2.583959912875102294e+00	2.509288090689443962e+01	-2.583957309842986216e+00
8.321246792954189004e+03	-2.583989064636797117e+00	2.509479024630284627e+01	-2.583985894086978874e+00
8.321250260120135863e+03	-2.584023890911416377e+00	2.509689506498662936e+01	-2.584020152967986927e+00
8.321253727286082722e+03	-2.584064390335376160e+00	2.509919528549681900e+01	-2.584060085144730401e+00
8.321257194452029580e+03	-2.584110561322054078e+00	2.510169082335326962e+01	-2.584105689052889510e+00
8.321260661617976439e+03	-2.584162402061852326e+00	2.510438158704702616e+01	-2.584156962905161503e+00
8.321264128783923297e+03	-2.584219910522266961e+00	2.510726747804269365e+01	-2.584213904691329500e+00
8.321267595949870156e+03	-2.584283084447952739e+00	2.511034839078066483e+01	-2.584276512178327323e+00
8.321271063115817014e+03	-2.584351921360818150e+00	2.511362421268015410e+01	-2.584344782910334093e+00
8.321274530281763873e+03	-2.584426418560143990e+00	2.511709482414307715e+01	-2.584418714208890133e+00
8.321277997447708913e+03	-2.584506573122649975e+00	2.512076009855572423e+01	-2.584498303172966249e+00
8.321281464613655771e+03	-2.584592381902643510e+00	2.512461990229330766e+01	-2.584583546679104060e+00
8.321284931779602630e+03	-2.584683841532110282e+00	2.512867409472265123e+01	-2.584674441381517696e+00
8.321288398945549488e+03	-2.584780948420844826e+00	2.513292252820540895e+01	-2.584770983712213255e+00
8.321291866111496347e+03	-2.584883698756624604e+00	2.513736504810335504e+01	-2.584873169881163779e+00
8.321295333277443206e+03	-2.584992088505321917e+00	2.514200149278116214e+01	-2.584980995876426491e+00
8.321298800443390064e+03	-2.585106113411081985e+00	2.514683169361104476e+01	-2.585094457464309325e+00
8.321302267609336923e+03	-2.585225768996472606e+00	2.515185547497691232e+01	-2.585213550189533027e+00
8.321305734775283781e+03	-2.585351050562657793e+00	2.515707265427861117e+01	-2.585338269375392795e+00
8.321309201941230640e+03	-2.585481953189587845e+00	2.516248304193682728e+01	-2.585468610123951017e+00
8.321312669107177499e+03	-2.585618471736180979e+00	2.516808644139777940e+01	-2.585604567316220681e+00
8.321316136273124357e+03	-2.585760600840547152e+00	2.517388264913901708e+01	-2.585746135612384755e+00
8.321319603439069397e+03	-2.585908334920164808e+00	2.517987145467329668e+01	-2.585893309451973821e+00
8.321323070605016255e+03	-2.586061668172092265e+00	2.518605264055419468e+01	-2.586046083054080125e+00
8.321326537770963114e+03	-2.586220594573224840e+00	2.519242598238206199e+01	-2.586204450417602274e+00
8.321330004936909972e+03	-2.586385107880498690e+00	2.519899124880932462e+01	-2.586368405321461506e+00
8.321333472102856831e+03	-2.586555201631174139e+00	2.520574820154737949e+01	-2.586537941324877909e+00
8.321336939268803690e+03	-2.586730869143026190e+00	2.521269659537074048e+01	-2.586713051767561833e+00
8.321340406434750548e+03	-2.586912103514628303e+00	2.521983617812389866e+01	-2.586893729769995431e+00
8.321343873600697407e+03	-2.587098897625639715e+00	2.522716669072820750e+01	-2.587079968233713778e+00
8.321347340766644265e+03	-2.587291244137068347e+00	2.523468786718853707e+01	-2.587271759841580643e+00
8.321350807932591124e+03	-2.587489135491554126e+00	2.524239943459943802e+01	-2.587469097058060274e+00
8.321354275098537983e+03	-2.587692563913641663e+00	2.525030111315144410e+01	-2.587671972129491849e+00
8.321357742264484841e+03	-2.587901521410117756e+00	2.525839261613927533e+01	-2.587880377084423866e+00
8.321361209430429881e+03	-2.588115999770288944e+00	2.526667364996823295e+01	-2.588094303733897927e+00
8.321364676596376739e+03	-2.588335990566332789e+00	2.527514391416231732e+01	-2.588313743671788902e+00
8.321368143762323598e+03	-2.588561485153585195e+00	2.528380310137082176e+01	-2.588538688275102029e+00
8.321371610928270456e+03	-2.588792474670905008e+00	2.529265089737678807e+01	-2.588769128704330402e+00
8.321375078094217315e+03	-2.589028950041002197e+00	2.530168698110454883e+01	-2.589005055903780939e+00
8.321378545260164174e+03	-2.589270901970792682e+00	2.531091102462785614e+01	-2.589246460601933197e+00
8.321382012426111032e+03	-2.589518320951762487e+00	2.532032269317826234e+01	-2.589493333311799539e+00
8.321385479592057891e+03	-2.589771197260363422e+00	2.532992164515458811e+01	-2.589745664331320363e+00
8.321388946758004749e+03	-2.590029520958312848e+00	2.533970753212886606e+01	-2.590003443743667422e+00
8.321392413923951608e+03	-2.590293281893047972e+00	2.534967999885728318e+01	-2.590266661417688354e+00
8.321395881089898467e+03	-2.590562469698092229e+00	2.535983868328854740e+01	-2.590535307008281496e+00
8.321399348255845325e+03	-2.590837073793476719e+00	2.537018321657341247e+01	-2.590809369956807551e+00
8.321402815421790365e+03	-2.591117083386125231e+00	2.538071322307333233e+01	-2.591088839491481721e+00
8.321406282587737223e+03	-2.591402487470295668e+00	2.539142832037066810e+01	-2.591373704627810692e+00
8.321409749753684082e+03	-2.591693274827997939e+00	2.540232811927819156e+01	-2.591663954169010964e+00
8.321413216919630941e+03	-2.591989434029390083e+00	2.541341222384743759e+01	-2.591959576706404977e+00
8.321416684085577799e+03	-2.592290953433278755e+00	2.542468023138060218e+01	-2.592260560619911391e+00
8.321420151251524658e+03	-2.592597821187558882e+00	2.543613173244083470e+01	-2.592566894078500273e+00
8.321423618417471516e+03	-2.592910025229652415e+00	2.544776631086137186e+01	-2.592878565040615868e+00
8.321427085583418375e+03	-2.593227553286991505e+00	2.545958354375720845e+01	-2.593195561254670434e+00
8.321430552749365233e+03	-2.593550392877493671e+00	2.547158300153537525e+01	-2.593517870259512303e+00
8.321434019915312092e+03	-2.593878531310027213e+00	2.548376424790546935e+01	-2.593845479384890851e+00
8.321437487081258951e+03	-2.594211955684925464e+00	2.549612683989146689e+01	-2.594178375751970744e+00
8.321440954247205809e+03	-2.594550652894486387e+00	2.550867032784305621e+01	-2.594516546273830215e+00
8.321444421413150849e+03	-2.594894609623469961e+00	2.552139425544692486e+01	-2.594859977655961547e+00
8.321447888579097707e+03	-2.595243812349614210e+00	2.553429815973812822e+01	-2.595208656396780000e+00
8.321451355745044566e+03	-2.595598247344173437e+00	2.554738157111263419e+01	-2.595562568788166491e+00
8.321454822910991425e+03	-2.595957900672455576e+00	2.556064401333943792e+01	-2.595921700915995167e+00
8.321458290076938283e+03	-2.596322758194330227e+00	2.557408500357210102e+01	-2.596286038660660989e+00
8.321461757242885142e+03	-2.596692805564789097e+00	2.558770405236083434e+01	-2.596655567697613520e+00
8.321465224408832000e+03	-2.597068028234521542e+00	2.560150066366649924e+01	-2.597030273497949349e+00
8.321468691574778859e+03	-2.597448411450460348e+00	2.561547433487232439e+01	-2.597410141328949429e+00
8.321472158740725718e+03	-2.597833940256383922e+00	2.562962455679823037e+01	-2.597795156254683047e+00
8.321475625906672576e+03	-2.598224599493462961e+00	2.564395081371277385e+01	-2.598185303136557156e+00
8.321479093072619435e+03	-2.598620373800855088e+00	2.565845258334666923e+01	-2.598580566633900801e+00
8.321482560238566293e+03	-2.599021247616308372e+00	2.567312933690663357e+01	-2.598980931204575295e+00
8.321486027404511333e+03	-2.599427205176788824e+00	2.568798053909015877e+01	-2.599386381105600385e+00
8.321489494570458191e+03	-2.599838230519057269e+00	2.570300564809815569e+01	-2.599796900393729793e+00
8.321492961736405050e+03	-2.600254307480280414e+00	2.571820411564874931e+01	-2.600212472926059171e+00
8.321496428902351909e+03	-2.600675419698692981e+00	2.573357538699285385e+01	-2.600633082360689130e+00
8.321499896068298767e+03	-2.601101550614227431e+00	2.574911890092863942e+01	-2.601058712157353181e+00
8.321503363234245626e+03	-2.601532683469135243e+00	2.576483408981554746e+01	-2.601489345578042123e+00
8.321506830400192484e+03	-2.601968801308653489e+00	2.578072037958956386e+01	-2.601924965687664848e+00
8.321510297566139343e+03	-2.602409886981670528e+00	2.579677718977881185e+01	-2.602365555354714477e+00
8.321513764732086202e+03	-2.602855923141375705e+00	2.581300393351836320e+01	-2.602811097251921169e+00
8.321517231898033060e+03	-2.603306892245941473e+00	2.582940001756584891e+01	-2.603261573856926692e+00
8.321520699063979919e+03	-2.603762776559207737e+00	2.584596484231755653e+01	-2.603716967452975428e+00
8.321524166229926777e+03	-2.604223558151358642e+00	2.586269780182373168e+01	-2.604177260129583615e+00
8.321527633395871817e+03	-2.604689218899639780e+00	2.587959828380556360e+01	-2.604642433783260103e+00
8.321531100561818675e+03	-2.605159740489053632e+00	2.589666566967122918e+01	-2.605112470118200463e+00
8.321534567727765534e+03	-2.605635104413053682e+00	2.591389933453177363e+01	-2.605587350646979772e+00
8.321538034893712393e+03	-2.606115291974290926e+00	2.593129864721882072e+01	-2.606067056691297346e+00
8.321541502059659251e+03	-2.606600284285327973e+00	2.594886297030102895e+01	-2.606551569382690836e+00
8.321544969225606110e+03	-2.607090062269374453e+00	2.596659166010147857e+01	-2.607040869663273419e+00
8.321548436391552968e+03	-2.607584606661026427e+00	2.598448406671483468e+01	-2.607534938286468318e+00
8.321551903557499827e+03	-2.608083898007033774e+00	2.600253953402534890e+01	-2.608033755817774413e+00
8.321555370723446686e+03	-2.608587916667020501e+00	2.602075739972393720e+01	-2.608537302635496768e+00
8.321558837889393544e+03	-2.609096642814265454e+00	2.603913699532615311e+01	-2.609045558931512687e+00
8.321562305055340403e+03	-2.609610056436495018e+00	2.605767764619139015e+01	-2.609558504712069738e+00
8.321565772221287261e+03	-2.610128137336634069e+00	2.607637867154040734e+01	-2.610076119798536265e+00
8.321569239387232301e+03	-2.610650865133608445e+00	2.609523938447437885e+01	-2.610598383828203417e+00
8.321572706553179160e+03	-2.611178219263142086e+00	2.611425909199389039e+01	-2.611125276255079175e+00
8.321576173719126018e+03	-2.611710178978525754e+00	2.613343709501700829e+01	-2.611656776350661069e+00
8.321579640885072877e+03	-2.612246723351449695e+00	2.615277268839922442e+01	-2.612192863204763960e+00
8.321583108051019735e+03	-2.612787831272819883e+00	2.617226516095298194e+01	-2.612733515726334499e+00
8.321586575216966594e+03	-2.613333481453561369e+00	2.619191379546680309e+01	-2.613278712644258484e+00
8.321590042382913452e+03	-2.613883652425474491e+00	2.621171786872609744e+01	-2.613828432508212174e+00
8.321593509548860311e+03	-2.614438322542043114e+00	2.623167665153224704e+01	-2.614382653689472757e+00
8.321596976714807170e+03	-2.614997469979303268e+00	2.625178940872384103e+01	-2.614941354381783434e+00
8.321600443880754028e+03	-2.615561072736659387e+00	2.627205539919601307e+01	-2.615504512602171427e+00
8.321603911046700887e+03	-2.616129108637771594e+00	2.629247387592225493e+01	-2.616072106191834390e+00
8.321607378212647745e+03	-2.616701555331414131e+00	2.631304408597522126e+01	-2.616644112816996603e+00
8.321610845378592785e+03	-2.617278390292322676e+00	2.633376527054693383e+01	-2.617220509969755859e+00
8.321614312544539644e+03	-2.617859590822103399e+00	2.635463666497147628e+01	-2.617801274968993397e+00
8.321617779710486502e+03	-2.618445134050098932e+00	2.637565749874579524e+01	-2.618386384961238544e+00
8.321621246876433361e+03	-2.619034996934289872e+00	2.639682699555194034e+01	-2.618975816921566224e+00
8.321624714042380219e+03	-2.619629156262173630e+00	2.641814437327849063e+01	-2.619569547654482911e+00
8.321628181208327078e+03	-2.620227588651695694e+00	2.643960884404354772e+01	-2.620167553794847226e+00
8.321631648374273936e+03	-2.620830270552134245e+00	2.646121961421664537e+01	-2.620769811808764782e+00
8.321635115540220795e+03	-2.621437178245023869e+00	2.648297588444119910e+01	-2.621376297994501670e+00
8.321638582706167654e+03	-2.622048287845107684e+00	2.650487684965859714e+01	-2.621986988483437475e+00
8.321642049872114512e+03	-2.622663575301248606e+00	2.652692169913072462e+01	-2.622601859240981881e+00
8.321645517038061371e+03	-2.623283016397350398e+00	2.654910961646277556e+01	-2.623220886067493041e+00
8.321648984204008229e+03	-2.623906586753320003e+00	2.657143977962719461e+01	-2.623844044599235037e+00
8.321652451369953269e+03	-2.624534261826016568e+00	2.659391136098750863e+01	-2.624471310309326899e+00
8.321655918535900128e+03	-2.625166016910212896e+00	2.661652352732268767e+01	-2.625102658508708053e+00
8.321659385701846986e+03	-2.625801827139545797e+00	2.663927543985079183e+01	-2.625738064347086009e+00
8.321662852867793845e+03	-2.626441667487490861e+00	2.666216625425358089e+01	-2.626377502813908027e+00
8.321666320033740703e+03	-2.627085512768345676e+00	2.668519512070145794e+01	-2.627020948739345663e+00
8.321669787199687562e+03	-2.627733337638208155e+00	2.670836118387825664e+01	-2.627668376795270433e+00
8.321673254365634421e+03	-2.628385116595962412e+00	2.673166358300646550e+01	-2.628319761496245910e+00
8.321676721531581279e+03	-2.629040823984263753e+00	2.675510145187180200e+01	-2.628975077200504273e+00
8.321680188697528138e+03	-2.629700433990571184e+00	2.677867391885039083e+01	-2.629634298110979262e+00
8.321683655863474996e+03	-2.630363920648143505e+00	2.680238010693373241e+01	-2.630297398276301823e+00
8.321687123029421855e+03	-2.631031257837039838e+00	2.682621913375478684e+01	-2.630964351591807748e+00
8.321690590195368713e+03	-2.631702419285140593e+00	2.685019011161389457e+01	-2.631635131800549310e+00
8.321694057361313753e+03	-2.632377378569172421e+00	2.687429214750548567e+01	-2.632309712494322440e+00
8.321697524527260612e+03	-2.633056109115752719e+00	2.689852434314497387e+01	-2.632988067114707231e+00
8.321700991693207470e+03	-2.633738584202429678e+00	2.692288579499605561e+01	-2.633670168954111546e+00
8.321704458859154329e+03	-2.634424776958708136e+00	2.694737559429740870e+01	-2.634355991156800414e+00
8.321707926025101187e+03	-2.635114660367092743e+00	2.697199282708940160e+01	-2.635045506719927655e+00
8.321711393191048046e+03	-2.635808207264173308e+00	2.699673657424322926e+01	-2.635738688494629667e+00
8.321714860356994905e+03	-2.636505390341664867e+00	2.702160591148779289e+01	-2.636435509187058379e+00
8.321718327522941763e+03	-2.637206182147485478e+00	2.704659990943839531e+01	-2.637135941359467051e+00
8.321721794688888622e+03	-2.637910555086814934e+00	2.707171763362431705e+01	-2.637839957431257876e+00
8.321725261854835480e+03	-2.638618481423185003e+00	2.709695814451804097e+01	-2.638547529680080661e+00
8.321728729020782339e+03	-2.639329933279542573e+00	2.712232049756316599e+01	-2.639258630242889314e+00
8.321732196186729198e+03	-2.640044882639384749e+00	2.714780374320508471e+01	-2.639973231117079155e+00
8.321735663352674237e+03	-2.640763301347813563e+00	2.717340692691871240e+01	-2.640691304161540298e+00
8.321739130518621096e+03	-2.641485161112652413e+00	2.719912908923884132e+01	-2.641412821097776753e+00
8.321742597684567954e+03	-2.642210433505538969e+00	2.722496926578889287e+01	-2.642137753510991338e+00
8.321746064850514813e+03	-2.642939089963063815e+00	2.725092648731231648e+01	-2.642866072851232762e+00
8.321749532016461671e+03	-2.643671101787858468e+00	2.727699977970135592e+01	-2.643597750434476534e+00
8.321752999182408530e+03	-2.644406440149717596e+00	2.730318816402767723e+01	-2.644332757443750292e+00
8.321756466348355389e+03	-2.645145076086759861e+00	2.732949065657403054e+01	-2.645071064930289761e+00
8.321759933514302247e+03	-2.645886980506525266e+00	2.735590626886400045e+01	-2.645812643814640541e+00
8.321763400680249106e+03	-2.646632124187132451e+00	2.738243400769369273e+01	-2.646557464887813627e+00
8.321766867846195964e+03	-2.647380477778407570e+00	2.740907287516263580e+01	-2.647305498812412061e+00
8.321770335012142823e+03	-2.648132011803040253e+00	2.743582186870547801e+01	-2.648056716123787790e+00
8.321773802178089682e+03	-2.648886696657760886e+00	2.746267998112458031e+01	-2.648811087231212280e+00
8.321777269344034721e+03	-2.649644502614465047e+00	2.748964620062118058e+01	-2.649568582419016050e+00
8.321780736509981580e+03	-2.650405399821401886e+00	2.751671951082820655e+01	-2.650329171847759291e+00
8.321784203675928438e+03	-2.651169358304313217e+00	2.754389889084175636e+01	-2.651092825555381616e+00
8.321787670841875297e+03	-2.651936347967623231e+00	2.757118331525449051e+01	-2.651859513458386441e+00
8.321791138007822155e+03	-2.652706338595611335e+00	2.759857175418827069e+01	-2.652629205353012498e+00
8.321794605173769014e+03	-2.653479299853633844e+00	2.762606317332870987e+01	-2.653401870916455962e+00
8.321798072339715873e+03	-2.654255201289275501e+00	2.765365653395755885e+01	-2.654177479708027310e+00
8.321801539505662731e+03	-2.655034012333520099e+00	2.768135079298527756e+01	-2.654956001170314828e+00
8.321805006671609590e+03	-2.655815702301980163e+00	2.770914490298599731e+01	-2.655737404630414300e+00
8.321808473837556448e+03	-2.656600240396101320e+00	2.773703781223187903e+01	-2.656521659301132043e+00
8.321811941003503307e+03	-2.657387595704366667e+00	2.776502846472743968e+01	-2.657308734282197271e+00
8.321815408169450166e+03	-2.658177737203502922e+00	2.779311580024362982e+01	-2.658098598561453141e+00
8.321818875335395205e+03	-2.658970633759689672e+00	2.782129875435274968e+01	-2.658891221016081108e+00
8.321822342501342064e+03	-2.659766254129797503e+00	2.784957625846389107e+01	-2.659686570413828832e+00
8.321825809667288922e+03	-2.660564566962593691e+00	2.787794723985753365e+01	-2.660484615414217213e+00
8.321829276833235781e+03	-2.661365540799969676e+00	2.790641062172105435e+01	-2.661285324569770516e+00
8.321832743999182640e+03	-2.662169144078189387e+00	2.793496532318483005e+01	-2.662088666327258046e+00
8.321836211165129498e+03	-2.662975345129134919e+00	2.796361025935862799e+01	-2.662894609028946924e+00
8.321839678331076357e+03	-2.663784112181523778e+00	2.799234434136680605e+01	-2.663703120913813116e+00
8.321843145497023215e+03	-2.664595413362169207e+00	2.802116647638522906e+01	-2.664514170118805314e+00
8.321846612662970074e+03	-2.665409216697216532e+00	2.805007556767737498e+01	-2.665327724680077282e+00
8.321850079828916932e+03	-2.666225490113426577e+00	2.807907051463227077e+01	-2.666143752534274380e+00
8.321853546994863791e+03	-2.667044201439401796e+00	2.810815021280043524e+01	-2.666962221519757925e+00
8.321857014160810650e+03	-2.667865318406853703e+00	2.813731355393116473e+01	-2.667783099377869060e+00
8.321860481326755689e+03	-2.668688808651891620e+00	2.816655942601114404e+01	-2.668606353754221505e+00
8.321863948492702548e+03	-2.669514639716296323e+00	2.819588671330214780e+01	-2.669431952199972979e+00
8.321867415658649406e+03	-2.670342779048753723e+00	2.822529429637771869e+01	-2.670259862173061105e+00
8.321870882824596265e+03	-2.671173194006151164e+00	2.825478105216175351e+01	-2.671090051039492597e+00
8.321874349990543124e+03	-2.672005851854888814e+00	2.828434585396829704e+01	-2.671922486074662650e+00
