# time(us)	tip(nm)	Fts(nN)	Xb(nm)
8.321201719796881662e+03	5.730811865916683345e+00	-8.753643799554476634e-03	-2.420119601868786774e-01
8.321205186962828520e+03	5.750494478571138934e+00	-8.698163085173441292e-03	-2.419667784664041033e-01
8.321208654128775379e+03	5.770061801494061449e+00	-8.643528253188882335e-03	-2.419218135965565120e-01
8.321212121294722238e+03	5.789513009701953372e+00	-8.589725956783481747e-03	-2.418770637871291151e-01
8.321215588460669096e+03	5.808847282065609186e+00	-8.536743134736544253e-03	-2.418325272672431914e-01
8.321219055626615955e+03	5.828063801360165996e+00	-8.484567004635117093e-03	-2.417882022850814661e-01
8.321222522792562813e+03	5.847161754315242099e+00	-8.433185056275591118e-03	-2.417440871076265707e-01
8.321225989958509672e+03	5.866140331665087970e+00	-8.382585045249999617e-03	-2.417001800204037765e-01
8.321229457124456530e+03	5.884998728198827855e+00	-8.332754986711149794e-03	-2.416564793272293621e-01
8.321232924290403389e+03	5.903736142810712018e+00	-8.283683149311089552e-03	-2.416129833499631452e-01
8.321236391456348429e+03	5.922351778550387635e+00	-8.235358049307642953e-03	-2.415696904282657320e-01
8.321239858622295287e+03	5.940844842673216775e+00	-8.187768444833778969e-03	-2.415265989193600138e-01
8.321243325788242146e+03	5.959214546690581926e+00	-8.140903330324848752e-03	-2.414837071977976313e-01
8.321246792954189004e+03	5.977460106420220853e+00	-8.094751931098941727e-03	-2.414410136552285480e-01
8.321250260120135863e+03	5.995580742036538346e+00	-8.049303698085621267e-03	-2.413985167001757859e-01
8.321253727286082722e+03	6.013575678120906431e+00	-8.004548302698701392e-03	-2.413562147578135753e-01
8.321257194452029580e+03	6.031444143711946815e+00	-7.960475631848587183e-03	-2.413141062697498063e-01
8.321260661617976439e+03	6.049185372355823098e+00	-7.917075783090034638e-03	-2.412721896938120891e-01
8.321264128783923297e+03	6.066798602156437958e+00	-7.874339059901357477e-03	-2.412304635038373390e-01
8.321267595949870156e+03	6.084283075825615228e+00	-7.832255967091148255e-03	-2.411889261894654968e-01
8.321271063115817014e+03	6.101638040733240231e+00	-7.790817206328650574e-03	-2.411475762559366076e-01
8.321274530281763873e+03	6.118862748957324627e+00	-7.750013671794243539e-03	-2.411064122238910368e-01
8.321277997447708913e+03	6.135956457333991310e+00	-7.709836445946494435e-03	-2.410654326291741811e-01
8.321281464613655771e+03	6.152918427507410470e+00	-7.670276795402290217e-03	-2.410246360226424300e-01
8.321284931779602630e+03	6.169747925979639724e+00	-7.631326166926829906e-03	-2.409840209699747882e-01
8.321288398945549488e+03	6.186444224160369210e+00	-7.592976183530253040e-03	-2.409435860514856642e-01
8.321291866111496347e+03	6.203006598416542339e+00	-7.555218640667911781e-03	-2.409033298619421837e-01
8.321295333277443206e+03	6.219434330121901944e+00	-7.518045502541133816e-03	-2.408632510103838886e-01
8.321298800443390064e+03	6.235726705706397865e+00	-7.481448898495730859e-03	-2.408233481199450743e-01
8.321302267609336923e+03	6.251883016705463092e+00	-7.445421119515430348e-03	-2.407836198276804562e-01
8.321305734775283781e+03	6.267902559809162888e+00	-7.409954614807514640e-03	-2.407440647843940851e-01
8.321309201941230640e+03	6.283784636911207144e+00	-7.375041988478031781e-03	-2.407046816544700096e-01
8.321312669107177499e+03	6.299528555157783316e+00	-7.340675996294146639e-03	-2.406654691157062154e-01
8.321316136273124357e+03	6.315133626996242810e+00	-7.306849542531091042e-03	-2.406264258591510607e-01
8.321319603439069397e+03	6.330599170223618621e+00	-7.273555676901390966e-03	-2.405875505889429056e-01
8.321323070605016255e+03	6.345924508034972433e+00	-7.240787591564035001e-03	-2.405488420221510160e-01
8.321326537770963114e+03	6.361108969071519681e+00	-7.208538618211483319e-03	-2.405102988886201054e-01
8.321330004936909972e+03	6.376151887468596513e+00	-7.176802225232215178e-03	-2.404719199308167077e-01
8.321333472102856831e+03	6.391052602903402047e+00	-7.145572014946858196e-03	-2.404337039036781032e-01
8.321336939268803690e+03	6.405810460642530124e+00	-7.114841720915837664e-03	-2.403956495744632160e-01
8.321340406434750548e+03	6.420424811589282577e+00	-7.084605205316577003e-03	-2.403577557226067030e-01
8.321343873600697407e+03	6.434895012330733799e+00	-7.054856456388468658e-03	-2.403200211395738473e-01
8.321347340766644265e+03	6.449220425184597261e+00	-7.025589585943600550e-03	-2.402824446287190052e-01
8.321350807932591124e+03	6.463400418245803358e+00	-6.996798826941662101e-03	-2.402450250051456071e-01
8.321354275098537983e+03	6.477434365432824137e+00	-6.968478531127256931e-03	-2.402077610955675180e-01
8.321357742264484841e+03	6.491321646533759981e+00	-6.940623166727855411e-03	-2.401706517381739792e-01
8.321361209430429881e+03	6.505061647252142087e+00	-6.913227316210916913e-03	-2.401336957824953822e-01
8.321364676596376739e+03	6.518653759252429403e+00	-6.886285674098582311e-03	-2.400968920892710690e-01
8.321368143762323598e+03	6.532097380205255099e+00	-6.859793044838387657e-03	-2.400602395303199632e-01
8.321371610928270456e+03	6.545391913832346198e+00	-6.833744340728613829e-03	-2.400237369884118122e-01
8.321375078094217315e+03	6.558536769951141210e+00	-6.808134579896743012e-03	-2.399873833571411208e-01
8.321378545260164174e+03	6.571531364519091589e+00	-6.782958884329835444e-03	-2.399511775408031122e-01
8.321382012426111032e+03	6.584375119677659427e+00	-6.758212477955204481e-03	-2.399151184542704374e-01
8.321385479592057891e+03	6.597067463795944775e+00	-6.733890684770471417e-03	-2.398792050228722994e-01
8.321388946758004749e+03	6.609607831514022536e+00	-6.709988927021377260e-03	-2.398434361822757710e-01
8.321392413923951608e+03	6.621995663785873454e+00	-6.686502723426471922e-03	-2.398078108783673612e-01
8.321395881089898467e+03	6.634230407922002470e+00	-6.663427687447264457e-03	-2.397723280671381074e-01
8.321399348255845325e+03	6.646311517631708021e+00	-6.640759525602752712e-03	-2.397369867145682787e-01
8.321402815421790365e+03	6.658238453064902806e+00	-6.618494035827395677e-03	-2.397017857965153820e-01
8.321406282587737223e+03	6.670010680853646790e+00	-6.596627105871205772e-03	-2.396667242986025015e-01
8.321409749753684082e+03	6.681627674153200580e+00	-6.575154711741167460e-03	-2.396318012161090250e-01
8.321413216919630941e+03	6.693088912682756408e+00	-6.554072916182746185e-03	-2.395970155538620638e-01
8.321416684085577799e+03	6.704393882765736556e+00	-6.533377867200706145e-03	-2.395623663261302605e-01
8.321420151251524658e+03	6.715542077369678786e+00	-6.513065796618176979e-03	-2.395278525565181504e-01
8.321423618417471516e+03	6.726532996145696330e+00	-6.493133018673143651e-03	-2.394934732778625230e-01
8.321427085583418375e+03	6.737366145467538203e+00	-6.473575928651360313e-03	-2.394592275321296981e-01
8.321430552749365233e+03	6.748041038470181441e+00	-6.454391001554968255e-03	-2.394251143703150508e-01
8.321434019915312092e+03	6.758557195087986358e+00	-6.435574790805893321e-03	-2.393911328523426196e-01
8.321437487081258951e+03	6.768914142092421038e+00	-6.417123926983205745e-03	-2.393572820469671292e-01
8.321440954247205809e+03	6.779111413129328412e+00	-6.399035116593719021e-03	-2.393235610316764017e-01
8.321444421413150849e+03	6.789148548755708390e+00	-6.381305140875015956e-03	-2.392899688925960167e-01
8.321447888579097707e+03	6.799025096476048802e+00	-6.363930854630239255e-03	-2.392565047243947474e-01
8.321451355745044566e+03	6.808740610778159841e+00	-6.346909185093847772e-03	-2.392231676301906085e-01
8.321454822910991425e+03	6.818294653168541331e+00	-6.330237130827726967e-03	-2.391899567214589573e-01
8.321458290076938283e+03	6.827686792207256161e+00	-6.313911760646885064e-03	-2.391568711179420936e-01
8.321461757242885142e+03	6.836916603542272597e+00	-6.297930212574247462e-03	-2.391239099475581942e-01
8.321465224408832000e+03	6.845983669943350947e+00	-6.282289692823751423e-03	-2.390910723463140486e-01
8.321468691574778859e+03	6.854887581335377789e+00	-6.266987474811212822e-03	-2.390583574582166582e-01
8.321472158740725718e+03	6.863627934831195709e+00	-6.252020898192434985e-03	-2.390257644351870825e-01
8.321475625906672576e+03	6.872204334763914346e+00	-6.237387367927818907e-03	-2.389932924369749523e-01
8.321479093072619435e+03	6.880616392718676089e+00	-6.223084353373133960e-03	-2.389609406310745643e-01
8.321482560238566293e+03	6.888863727563891537e+00	-6.209109387395746540e-03	-2.389287081926411982e-01
8.321486027404511333e+03	6.896945965481957153e+00	-6.195460065515814851e-03	-2.388965943044092932e-01
8.321489494570458191e+03	6.904862739999353849e+00	-6.182134045072121102e-03	-2.388645981566115684e-01
8.321492961736405050e+03	6.912613692016234879e+00	-6.169129044411815130e-03	-2.388327189468981704e-01
8.321496428902351909e+03	6.920198469835482591e+00	-6.156442842103679140e-03	-2.388009558802581533e-01
8.321499896068298767e+03	6.927616729191109712e+00	-6.144073276174616925e-03	-2.387693081689408747e-01
8.321503363234245626e+03	6.934868133276180124e+00	-6.132018243368658923e-03	-2.387377750323794734e-01
8.321506830400192484e+03	6.941952352770091039e+00	-6.120275698428260212e-03	-2.387063556971137923e-01
8.321510297566139343e+03	6.948869065865282302e+00	-6.108843653397451681e-03	-2.386750493967156883e-01
8.321513764732086202e+03	6.955617958293358605e+00	-6.097720176946369933e-03	-2.386438553717141475e-01
8.321517231898033060e+03	6.962198723350634388e+00	-6.086903393716813770e-03	-2.386127728695222050e-01
8.321520699063979919e+03	6.968611061923056127e+00	-6.076391483688509815e-03	-2.385818011443641695e-01
8.321524166229926777e+03	6.974854682510529535e+00	-6.066182681565662239e-03	-2.385509394572037922e-01
8.321527633395871817e+03	6.980929301250625940e+00	-6.056275276183516881e-03	-2.385201870756734899e-01
8.321531100561818675e+03	6.986834641941664259e+00	-6.046667609934537266e-03	-2.384895432740043175e-01
8.321534567727765534e+03	6.992570436065214778e+00	-6.037358078213882033e-03	-2.384590073329566073e-01
8.321538034893712393e+03	6.998136422807952783e+00	-6.028345128883891464e-03	-2.384285785397520230e-01
8.321541502059659251e+03	7.003532349082881581e+00	-6.019627261757289939e-03	-2.383982561880056972e-01
8.321544969225606110e+03	7.008757969549916922e+00	-6.011203028098876210e-03	-2.383680395776592020e-01
8.321548436391552968e+03	7.013813046635863024e+00	-6.003071030145237449e-03	-2.383379280149153234e-01
8.321551903557499827e+03	7.018697350553702030e+00	-5.995229920642487081e-03	-2.383079208121723080e-01
8.321555370723446686e+03	7.023410659321291938e+00	-5.987678402401531118e-03	-2.382780172879596925e-01
8.321558837889393544e+03	7.027952758779382414e+00	-5.980415227870755461e-03	-2.382482167668744377e-01
8.321562305055340403e+03	7.032323442608983122e+00	-5.973439198725916457e-03	-2.382185185795180349e-01
8.321565772221287261e+03	7.036522512348079239e+00	-5.966749165476893831e-03	-2.381889220624347769e-01
8.321569239387232301e+03	7.040549777407703935e+00	-5.960344027091176757e-03	-2.381594265580496972e-01
8.321572706553179160e+03	7.044405055087312739e+00	-5.954222730633904406e-03	-2.381300314146079511e-01
8.321576173719126018e+03	7.048088170589546841e+00	-5.948384270924184265e-03	-2.381007359861152528e-01
8.321579640885072877e+03	7.051598957034275195e+00	-5.942827690207548585e-03	-2.380715396322778676e-01
8.321583108051019735e+03	7.054937255471989133e+00	-5.937552077844399784e-03	-2.380424417184444641e-01
8.321586575216966594e+03	7.058102914896518421e+00	-5.932556570014229681e-03	-2.380134416155476329e-01
8.321590042382913452e+03	7.061095792257079395e+00	-5.927840349435459059e-03	-2.379845387000472656e-01
8.321593509548860311e+03	7.063915752469656084e+00	-5.923402645100723195e-03	-2.379557323538730451e-01
8.321596976714807170e+03	7.066562668427675220e+00	-5.919242732027583422e-03	-2.379270219643691286e-01
8.321600443880754028e+03	7.069036421012027560e+00	-5.915359931024337728e-03	-2.378984069242384147e-01
8.321603911046700887e+03	7.071336899100365336e+00	-5.911753608471034468e-03	-2.378698866314877536e-01
8.321607378212647745e+03	7.073463999575738903e+00	-5.908423176115353524e-03	-2.378414604893740736e-01
8.321610845378592785e+03	7.075417627334558368e+00	-5.905368090883380064e-03	-2.378131279063507852e-01
8.321614312544539644e+03	7.077197695293826918e+00	-5.902587854705157282e-03	-2.377848882960147125e-01
8.321617779710486502e+03	7.078804124397755082e+00	-5.900082014354791730e-03	-2.377567410770536904e-01
8.321621246876433361e+03	7.080236843623589849e+00	-5.897850161305311610e-03	-2.377286856731956055e-01
8.321624714042380219e+03	7.081495789986808731e+00	-5.895891931597900711e-03	-2.377007215131561879e-01
8.321628181208327078e+03	7.082580908545624609e+00	-5.894207005725588672e-03	-2.376728480305891900e-01
8.321631648374273936e+03	7.083492152404746278e+00	-5.892795108531361133e-03	-2.376450646640359821e-01
8.321635115540220795e+03	7.084229482718543025e+00	-5.891656009120478134e-03	-2.376173708568764253e-01
8.321638582706167654e+03	7.084792868693380541e+00	-5.890789520787206336e-03	-2.375897660572799663e-01
8.321642049872114512e+03	7.085182287589346650e+00	-5.890195500955730870e-03	-2.375622497181568704e-01
8.321645517038061371e+03	7.085397724721279822e+00	-5.889873851135193038e-03	-2.375348212971109818e-01
8.321648984204008229e+03	7.085439173459072926e+00	-5.889824516889016932e-03	-2.375074802563919563e-01
8.321652451369953269e+03	7.085306635227295757e+00	-5.890047487818344564e-03	-2.374802260628490758e-01
8.321655918535900128e+03	7.085000119504118565e+00	-5.890542797559622859e-03	-2.374530581878845081e-01
8.321659385701846986e+03	7.084519643819537471e+00	-5.891310523796400647e-03	-2.374259761074077324e-01
8.321662852867793845e+03	7.083865233752895563e+00	-5.892350788285226348e-03	-2.373989793017903804e-01
8.321666320033740703e+03	7.083036922929742296e+00	-5.893663756895752177e-03	-2.373720672558217448e-01
8.321669787199687562e+03	7.082034753017967255e+00	-5.895249639665027519e-03	-2.373452394586640091e-01
8.321673254365634421e+03	7.080858773723256228e+00	-5.897108690866030914e-03	-2.373184954038089767e-01
8.321676721531581279e+03	7.079509042783854511e+00	-5.899241209090451930e-03	-2.372918345890348835e-01
8.321680188697528138e+03	7.077985625964617888e+00	-5.901647537345818331e-03	-2.372652565163629046e-01
8.321683655863474996e+03	7.076288597050413465e+00	-5.904328063166944252e-03	-2.372387606920157987e-01
8.321687123029421855e+03	7.074418037838801077e+00	-5.907283218741838163e-03	-2.372123466263754421e-01
8.321690590195368713e+03	7.072374038132061891e+00	-5.910513481052027257e-03	-2.371860138339415558e-01
8.321694057361313753e+03	7.070156695728497809e+00	-5.914019372027568000e-03	-2.371597618332907387e-01
8.321697524527260612e+03	7.067766116413073618e+00	-5.917801458716618820e-03	-2.371335901470362217e-01
8.321700991693207470e+03	7.065202413947397453e+00	-5.921860353469756214e-03	-2.371074983017877058e-01
8.321704458859154329e+03	7.062465710059006696e+00	-5.926196714139133140e-03	-2.370814858281111714e-01
8.321707926025101187e+03	7.059556134429959329e+00	-5.930811244292638444e-03	-2.370555522604905763e-01
8.321711393191048046e+03	7.056473824684772467e+00	-5.935704693443061633e-03	-2.370296971372887473e-01
8.321714860356994905e+03	7.053218926377704534e+00	-5.940877857292444289e-03	-2.370039200007086899e-01
8.321718327522941763e+03	7.049791592979351762e+00	-5.946331577991745623e-03	-2.369782203967561729e-01
8.321721794688888622e+03	7.046191985862580331e+00	-5.952066744416012120e-03	-2.369525978752018147e-01
8.321725261854835480e+03	7.042420274287789717e+00	-5.958084292455130201e-03	-2.369270519895442795e-01
8.321728729020782339e+03	7.038476635387541869e+00	-5.964385205320296354e-03	-2.369015822969732232e-01
8.321732196186729198e+03	7.034361254150518938e+00	-5.970970513866485745e-03	-2.368761883583336281e-01
8.321735663352674237e+03	7.030074323404837955e+00	-5.977841296930980902e-03	-2.368508697380885264e-01
8.321739130518621096e+03	7.025616043800714472e+00	-5.984998681688192927e-03	-2.368256260042850558e-01
8.321742597684567954e+03	7.020986623792458303e+00	-5.992443844021030225e-03	-2.368004567285184880e-01
8.321746064850514813e+03	7.016186279619872401e+00	-6.000178008908850329e-03	-2.367753614858972011e-01
8.321749532016461671e+03	7.011215235288988268e+00	-6.008202450832395534e-03	-2.367503398550086791e-01
8.321752999182408530e+03	7.006073722552199179e+00	-6.016518494195765253e-03	-2.367253914178857610e-01
8.321756466348355389e+03	7.000761980887711289e+00	-6.025127513765845752e-03	-2.367005157599717524e-01
8.321759933514302247e+03	6.995280257478410313e+00	-6.034030935129264944e-03	-2.366757124700887560e-01
8.321763400680249106e+03	6.989628807190112703e+00	-6.043230235167199212e-03	-2.366509811404034491e-01
8.321766867846195964e+03	6.983807892549174667e+00	-6.052726942548334980e-03	-2.366263213663946097e-01
8.321770335012142823e+03	6.977817783719512335e+00	-6.062522638240167190e-03	-2.366017327468217524e-01
8.321773802178089682e+03	6.971658758479037488e+00	-6.072618956038970325e-03	-2.365772148836919053e-01
8.321777269344034721e+03	6.965331102195448487e+00	-6.083017583118742119e-03	-2.365527673822291899e-01
8.321780736509981580e+03	6.958835107801440323e+00	-6.093720260599476413e-03	-2.365283898508425964e-01
8.321784203675928438e+03	6.952171075769367548e+00	-6.104728784134905682e-03	-2.365040819010959527e-01
8.321787670841875297e+03	6.945339314085244631e+00	-6.116045004520304779e-03	-2.364798431476765883e-01
8.321791138007822155e+03	6.938340138222221398e+00	-6.127670828320480774e-03	-2.364556732083653579e-01
8.321794605173769014e+03	6.931173871113502472e+00	-6.139608218518367855e-03	-2.364315717040066933e-01
8.321798072339715873e+03	6.923840843124656530e+00	-6.151859195184653135e-03	-2.364075382584793494e-01
8.321801539505662731e+03	6.916341392025371348e+00	-6.164425836168774264e-03	-2.363835724986662334e-01
8.321805006671609590e+03	6.908675862960674152e+00	-6.177310277811663523e-03	-2.363596740544260111e-01
8.321808473837556448e+03	6.900844608421561333e+00	-6.190514715680723278e-03	-2.363358425585644074e-01
8.321811941003503307e+03	6.892847988215155652e+00	-6.204041405327278234e-03	-2.363120776468054518e-01
8.321815408169450166e+03	6.884686369434234621e+00	-6.217892663067231367e-03	-2.362883789577635840e-01
8.321818875335395205e+03	6.876360126426305008e+00	-6.232070866785075283e-03	-2.362647461329161480e-01
8.321822342501342064e+03	6.867869640762127581e+00	-6.246578456761884418e-03	-2.362411788165750259e-01
8.321825809667288922e+03	6.859215301203693826e+00	-6.261417936527837944e-03	-2.362176766558602981e-01
8.321829276833235781e+03	6.850397503671730171e+00	-6.276591873739572648e-03	-2.361942393006730700e-01
8.321832743999182640e+03	6.841416651212668398e+00	-6.292102901083090893e-03	-2.361708664036684113e-01
8.321836211165129498e+03	6.832273153965148893e+00	-6.307953717202571461e-03	-2.361475576202291260e-01
8.321839678331076357e+03	6.822967429125993633e+00	-6.324147087655775448e-03	-2.361243126084402177e-01
8.321843145497023215e+03	6.813499900915737761e+00	-6.340685845896575426e-03	-2.361011310290623277e-01
8.321846612662970074e+03	6.803871000543634473e+00	-6.357572894285142169e-03	-2.360780125455065881e-01
8.321850079828916932e+03	6.794081166172227348e+00	-6.374811205126486302e-03	-2.360549568238090312e-01
8.321853546994863791e+03	6.784130842881454626e+00	-6.392403821737872686e-03	-2.360319635326059151e-01
8.321857014160810650e+03	6.774020482632254314e+00	-6.410353859545923731e-03	-2.360090323431085768e-01
8.321860481326755689e+03	6.763750544229791828e+00	-6.428664507213813217e-03	-2.359861629290793128e-01
8.321863948492702548e+03	6.753321493286182253e+00	-6.447339027799555040e-03	-2.359633549668068708e-01
8.321867415658649406e+03	6.742733802182821812e+00	-6.466380759945823155e-03	-2.359406081350826356e-01
8.321870882824596265e+03	6.731987950032272572e+00	-6.485793119102203907e-03	-2.359179221151761763e-01
8.321874349990543124e+03	6.721084422639704847e+00	-6.505579598780611948e-03	-2.358952965908129307e-01
