# time(us)	tip(nm)	Fts(nN)	Xb(nm)
8.321201719796881662e+03	3.026082247030197347e+00	-2.690171727138597826e-02	-2.946190258554080010e-01
8.321205186962828520e+03	3.032502927578021090e+00	-2.680438930918151164e-02	-2.945744841642534140e-01
8.321208654128775379e+03	3.038835333896907187e+00	-2.670892001463399598e-02	-2.945301276613981889e-01
8.321212121294722238e+03	3.045079142829951291e+00	-2.661528919174335067e-02	-2.944859549541710697e-01
8.321215588460669096e+03	3.051234035352618168e+00	-2.652347711200370856e-02	-2.944419646637611576e-01
8.321219055626615955e+03	3.057299696608635653e+00	-2.643346450571417566e-02	-2.943981554250489352e-01
8.321222522792562813e+03	3.063275815945474712e+00	-2.634523255353395793e-02	-2.943545258864393999e-01
8.321225989958509672e+03	3.069162086949433821e+00	-2.625876287827526648e-02	-2.943110747096990831e-01
8.321229457124456530e+03	3.074958207480333883e+00	-2.617403753692752744e-02	-2.942678005697946797e-01
8.321232924290403389e+03	3.080663879705809460e+00	-2.609103901290686298e-02	-2.942247021547343411e-01
8.321236391456348429e+03	3.086278810135172357e+00	-2.600975020852550404e-02	-2.941817781654122443e-01
8.321239858622295287e+03	3.091802709652864412e+00	-2.593015443767504591e-02	-2.941390273154540491e-01
8.321243325788242146e+03	3.097235293551467983e+00	-2.585223541871843958e-02	-2.940964483310657407e-01
8.321246792954189004e+03	3.102576281564283445e+00	-2.577597726758535865e-02	-2.940540399508850267e-01
8.321250260120135863e+03	3.107825397897465258e+00	-2.570136449106589366e-02	-2.940118009258345655e-01
8.321253727286082722e+03	3.112982371261673986e+00	-2.562838198029803935e-02	-2.939697300189766938e-01
8.321257194452029580e+03	3.118046934903306866e+00	-2.555701500444347227e-02	-2.939278260053715952e-01
8.321260661617976439e+03	3.123018826635224343e+00	-2.548724920454797926e-02	-2.938860876719370241e-01
8.321264128783923297e+03	3.127897788867009421e+00	-2.541907058758159643e-02	-2.938445138173101379e-01
8.321267595949870156e+03	3.132683568634734961e+00	-2.535246552065440612e-02	-2.938031032517102736e-01
8.321271063115817014e+03	3.137375917630248701e+00	-2.528742072540363442e-02	-2.937618547968068317e-01
8.321274530281763873e+03	3.141974592229951124e+00	-2.522392327254843053e-02	-2.937207672855848273e-01
8.321277997447708913e+03	3.146479353523067513e+00	-2.516196057660826518e-02	-2.936798395622162161e-01
8.321281464613655771e+03	3.150889967339406184e+00	-2.510152039078131225e-02	-2.936390704819307751e-01
8.321284931779602630e+03	3.155206204276591819e+00	-2.504259080197943771e-02	-2.935984589108890930e-01
8.321288398945549488e+03	3.159427839726790754e+00	-2.498516022601565689e-02	-2.935580037260587805e-01
8.321291866111496347e+03	3.163554653902856284e+00	-2.492921740294214844e-02	-2.935177038150908468e-01
8.321295333277443206e+03	3.167586431863977037e+00	-2.487475139253388437e-02	-2.934775580761984082e-01
8.321298800443390064e+03	3.171522963540769791e+00	-2.482175156991609649e-02	-2.934375654180367277e-01
8.321302267609336923e+03	3.175364043759806520e+00	-2.477020762133182868e-02	-2.933977247595865867e-01
8.321305734775283781e+03	3.179109472267589886e+00	-2.472010954004732683e-02	-2.933580350300363238e-01
8.321309201941230640e+03	3.182759053753954515e+00	-2.467144762239199124e-02	-2.933184951686688691e-01
8.321312669107177499e+03	3.186312597874919827e+00	-2.462421246393033114e-02	-2.932791041247468922e-01
8.321316136273124357e+03	3.189769919274946908e+00	-2.457839495576355851e-02	-2.932398608574028898e-01
8.321319603439069397e+03	3.193130837608612271e+00	-2.453398628095820183e-02	-2.932007643355279414e-01
8.321323070605016255e+03	3.196395177561710543e+00	-2.449097791109934932e-02	-2.931618135376637402e-01
8.321326537770963114e+03	3.199562768871754059e+00	-2.444936160296616243e-02	-2.931230074518956230e-01
8.321330004936909972e+03	3.202633446347870727e+00	-2.440912939532778256e-02	-2.930843450757462665e-01
8.321333472102856831e+03	3.205607049890105475e+00	-2.437027360585715396e-02	-2.930458254160726583e-01
8.321336939268803690e+03	3.208483424508117299e+00	-2.433278682816084754e-02	-2.930074474889620140e-01
8.321340406434750548e+03	3.211262420339257684e+00	-2.429666192892308146e-02	-2.929692103196310793e-01
8.321343873600697407e+03	3.213943892666044633e+00	-2.426189204516179462e-02	-2.929311129423254334e-01
8.321347340766644265e+03	3.216527701933016736e+00	-2.422847058159512817e-02	-2.928931544002214005e-01
8.321350807932591124e+03	3.219013713762933548e+00	-2.419639120811701780e-02	-2.928553337453283500e-01
8.321354275098537983e+03	3.221401798972388431e+00	-2.416564785737941590e-02	-2.928176500383914416e-01
8.321357742264484841e+03	3.223691833586767252e+00	-2.413623472248021054e-02	-2.927801023487980880e-01
8.321361209430429881e+03	3.225883698854577819e+00	-2.410814625475528328e-02	-2.927426897544831430e-01
8.321364676596376739e+03	3.227977281261118048e+00	-2.408137716167318976e-02	-2.927054113418369741e-01
8.321368143762323598e+03	3.229972472541535300e+00	-2.405592240483103716e-02	-2.926682662056137030e-01
8.321371610928270456e+03	3.231869169693221799e+00	-2.403177719805030602e-02	-2.926312534488408890e-01
8.321375078094217315e+03	3.233667274987562568e+00	-2.400893700557161711e-02	-2.925943721827310440e-01
8.321378545260164174e+03	3.235366695981048757e+00	-2.398739754034688240e-02	-2.925576215265932034e-01
8.321382012426111032e+03	3.236967345525703976e+00	-2.396715476242831586e-02	-2.925210006077460512e-01
8.321385479592057891e+03	3.238469141778884008e+00	-2.394820487745282986e-02	-2.924845085614323770e-01
8.321388946758004749e+03	3.239872008212396182e+00	-2.393054433522106422e-02	-2.924481445307345884e-01
8.321392413923951608e+03	3.241175873620970371e+00	-2.391416982837005559e-02	-2.924119076664908334e-01
8.321395881089898467e+03	3.242380672130056318e+00	-2.389907829113893309e-02	-2.923757971272122336e-01
8.321399348255845325e+03	3.243486343202968580e+00	-2.388526689822643295e-02	-2.923398120790018928e-01
8.321402815421790365e+03	3.244492831647370679e+00	-2.387273306373973586e-02	-2.923039516954743511e-01
8.321406282587737223e+03	3.245400087621057139e+00	-2.386147444023448486e-02	-2.922682151576752596e-01
8.321409749753684082e+03	3.246208066637100931e+00	-2.385148891784448152e-02	-2.922326016540034432e-01
8.321413216919630941e+03	3.246916729568305460e+00	-2.384277462350118879e-02	-2.921971103801335734e-01
8.321416684085577799e+03	3.247526042651002420e+00	-2.383532992024215910e-02	-2.921617405389383415e-01
8.321420151251524658e+03	3.248035977488174630e+00	-2.382915340660821460e-02	-2.921264913404145180e-01
8.321423618417471516e+03	3.248446511051897190e+00	-2.382424391612889686e-02	-2.920913620016061807e-01
8.321427085583418375e+03	3.248757625685106287e+00	-2.382060051689597127e-02	-2.920563517465325498e-01
8.321430552749365233e+03	3.248969309102706760e+00	-2.381822251122452799e-02	-2.920214598061133815e-01
8.321434019915312092e+03	3.249081554391979765e+00	-2.381710943540166908e-02	-2.919866854180985238e-01
8.321437487081258951e+03	3.249094360012337201e+00	-2.381726105952272632e-02	-2.919520278269947533e-01
8.321440954247205809e+03	3.249007729794399335e+00	-2.381867738741437479e-02	-2.919174862839974405e-01
8.321444421413150849e+03	3.248821672938391192e+00	-2.382135865664534655e-02	-2.918830600469185521e-01
8.321447888579097707e+03	3.248536204011887030e+00	-2.382530533862392552e-02	-2.918487483801204263e-01
8.321451355745044566e+03	3.248151342946840270e+00	-2.383051813878343111e-02	-2.918145505544456064e-01
8.321454822910991425e+03	3.247667115035981933e+00	-2.383699799685462875e-02	-2.917804658471513934e-01
8.321458290076938283e+03	3.247083550928532514e+00	-2.384474608722584460e-02	-2.917464935418422334e-01
8.321461757242885142e+03	3.246400686625239285e+00	-2.385376381939108975e-02	-2.917126329284049358e-01
8.321465224408832000e+03	3.245618563472765672e+00	-2.386405283848616610e-02	-2.916788833029434480e-01
8.321468691574778859e+03	3.244737228157378528e+00	-2.387561502591347556e-02	-2.916452439677150732e-01
8.321472158740725718e+03	3.243756732698017675e+00	-2.388845250005537657e-02	-2.916117142310670207e-01
8.321475625906672576e+03	3.242677134438664233e+00	-2.390256761707721181e-02	-2.915782934073734567e-01
8.321479093072619435e+03	3.241498496040069455e+00	-2.391796297182001776e-02	-2.915449808169747192e-01
8.321482560238566293e+03	3.240220885470797008e+00	-2.393464139878394639e-02	-2.915117757861147574e-01
8.321486027404511333e+03	3.238844375997658176e+00	-2.395260597320230181e-02	-2.914786776468820673e-01
8.321489494570458191e+03	3.237369046175444964e+00	-2.397186001220768387e-02	-2.914456857371488518e-01
8.321492961736405050e+03	3.235794979836033036e+00	-2.399240707609062023e-02	-2.914127994005127342e-01
8.321496428902351909e+03	3.234122266076844721e+00	-2.401425096965133926e-02	-2.913800179862381934e-01
8.321499896068298767e+03	3.232350999248657430e+00	-2.403739574364574180e-02	-2.913473408491982219e-01
8.321503363234245626e+03	3.230481278942767709e+00	-2.406184569632661974e-02	-2.913147673498184820e-01
8.321506830400192484e+03	3.228513209977512677e+00	-2.408760537508100250e-02	-2.912822968540199065e-01
8.321510297566139343e+03	3.226446902384172866e+00	-2.411467957816446420e-02	-2.912499287331631881e-01
8.321513764732086202e+03	3.224282471392233784e+00	-2.414307335653384512e-02	-2.912176623639945450e-01
8.321517231898033060e+03	3.222020037414020432e+00	-2.417279201577940406e-02	-2.911854971285888216e-01
8.321520699063979919e+03	3.219659726028708313e+00	-2.420384111815767486e-02	-2.911534324142992514e-01
8.321524166229926777e+03	3.217201667965716716e+00	-2.423622648472643221e-02	-2.911214676137001689e-01
8.321527633395871817e+03	3.214645999087488271e+00	-2.426995419758287004e-02	-2.910896021245379384e-01
8.321531100561818675e+03	3.211992860371646774e+00	-2.430503060220711234e-02	-2.910578353496763304e-01
8.321534567727765534e+03	3.209242397892571930e+00	-2.434146230991157331e-02	-2.910261666970457295e-01
8.321538034893712393e+03	3.206394762802346587e+00	-2.437925620039873773e-02	-2.909945955795933403e-01
8.321541502059659251e+03	3.203450111311137327e+00	-2.441841942442843708e-02	-2.909631214152310075e-01
8.321544969225606110e+03	3.200408604666953316e+00	-2.445895940659665452e-02	-2.909317436267867540e-01
8.321548436391552968e+03	3.197270409134837621e+00	-2.450088384822777729e-02	-2.909004616419548772e-01
8.321551903557499827e+03	3.194035695975474543e+00	-2.454420073038175373e-02	-2.908692748932472649e-01
8.321555370723446686e+03	3.190704641423226740e+00	-2.458891831697854191e-02	-2.908381828179458783e-01
8.321558837889393544e+03	3.187277426663586155e+00	-2.463504515804211190e-02	-2.908071848580543461e-01
8.321562305055340403e+03	3.183754237810071608e+00	-2.468259009306566013e-02	-2.907762804602514461e-01
8.321565772221287261e+03	3.180135265880575712e+00	-2.473156225450056853e-02	-2.907454690758439209e-01
8.321569239387232301e+03	3.176420706773161573e+00	-2.478197107137124905e-02	-2.907147501607209028e-01
8.321572706553179160e+03	3.172610761241280386e+00	-2.483382627301902040e-02	-2.906841231753084509e-01
8.321576173719126018e+03	3.168705634868492549e+00	-2.488713789297655743e-02	-2.906535875845239203e-01
8.321579640885072877e+03	3.164705538042633215e+00	-2.494191627297605296e-02	-2.906231428577319420e-01
8.321583108051019735e+03	3.160610685929453378e+00	-2.499817206709407935e-02	-2.905927884686999585e-01
8.321586575216966594e+03	3.156421298445760470e+00	-2.505591624603516893e-02	-2.905625238955549805e-01
8.321590042382913452e+03	3.152137600232009618e+00	-2.511516010155831480e-02	-2.905323486207399553e-01
8.321593509548860311e+03	3.147759820624413951e+00	-2.517591525104818928e-02	-2.905022621309722441e-01
8.321596976714807170e+03	3.143288193626549987e+00	-2.523819364223504891e-02	-2.904722639171997134e-01
8.321600443880754028e+03	3.138722957880484277e+00	-2.530200755806609469e-02	-2.904423534745604885e-01
8.321603911046700887e+03	3.134064356637385362e+00	-2.536736962173234342e-02	-2.904125303023408211e-01
8.321607378212647745e+03	3.129312637727694302e+00	-2.543429280185375424e-02	-2.903827939039350658e-01
8.321610845378592785e+03	3.124468053530790712e+00	-2.550279041782706896e-02	-2.903531437868043241e-01
8.321614312544539644e+03	3.119530860944228046e+00	-2.557287614533942238e-02	-2.903235794624370869e-01
8.321617779710486502e+03	3.114501321352497687e+00	-2.564456402205208402e-02	-2.902941004463098773e-01
8.321621246876433361e+03	3.109379700595347185e+00	-2.571786845345851863e-02	-2.902647062578477266e-01
8.321624714042380219e+03	3.104166268935656614e+00	-2.579280421892050923e-02	-2.902353964203856496e-01
8.321628181208327078e+03	3.098861301026888171e+00	-2.586938647788719625e-02	-2.902061704611305082e-01
8.321631648374273936e+03	3.093465075880125426e+00	-2.594763077630100195e-02	-2.901770279111231532e-01
8.321635115540220795e+03	3.087977876830683588e+00	-2.602755305319556095e-02	-2.901479683052008429e-01
8.321638582706167654e+03	3.082399991504317427e+00	-2.610916964749047595e-02	-2.901189911819601619e-01
8.321642049872114512e+03	3.076731711783032175e+00	-2.619249730498764139e-02	-2.900900960837208276e-01
8.321645517038061371e+03	3.070973333770508074e+00	-2.627755318557444680e-02	-2.900612825564887753e-01
8.321648984204008229e+03	3.065125157757138563e+00	-2.636435487063941430e-02	-2.900325501499215197e-01
8.321652451369953269e+03	3.059187488184710091e+00	-2.645292037070537047e-02	-2.900038984172906842e-01
8.321655918535900128e+03	3.053160633610700003e+00	-2.654326813328643231e-02	-2.899753269154489166e-01
8.321659385701846986e+03	3.047044906672215170e+00	-2.663541705097459064e-02	-2.899468352047938624e-01
8.321662852867793845e+03	3.040840624049620633e+00	-2.672938646976161237e-02	-2.899184228492344140e-01
8.321666320033740703e+03	3.034548106429799219e+00	-2.682519619760317942e-02	-2.898900894161569042e-01
8.321669787199687562e+03	3.028167678469101620e+00	-2.692286651323146790e-02	-2.898618344763908006e-01
8.321673254365634421e+03	3.021699668755960744e+00	-2.702241817522365100e-02	-2.898336576041758428e-01
8.321676721531581279e+03	3.015144409773210299e+00	-2.712387243133236245e-02	-2.898055583771290133e-01
8.321680188697528138e+03	3.008502237860104955e+00	-2.722725102808623912e-02	-2.897775363762124523e-01
8.321683655863474996e+03	3.001773493174032748e+00	-2.733257622066793957e-02	-2.897495911857004836e-01
8.321687123029421855e+03	2.994958519651956586e+00	-2.743987078307728519e-02	-2.897217223931481400e-01
8.321690590195368713e+03	2.988057664971601302e+00	-2.754915801858746557e-02	-2.896939295893595223e-01
8.321694057361313753e+03	2.981071280512345378e+00	-2.766046177050336327e-02	-2.896662123683572121e-01
8.321697524527260612e+03	2.973999721315881306e+00	-2.777380643323004716e-02	-2.896385703273497980e-01
8.321700991693207470e+03	2.966843346046625030e+00	-2.788921696366059716e-02	-2.896110030667033985e-01
8.321704458859154329e+03	2.959602516951886031e+00	-2.800671889289293656e-02	-2.895835101899094099e-01
8.321707926025101187e+03	2.952277599821830467e+00	-2.812633833828444632e-02	-2.895560913035567507e-01
8.321711393191048046e+03	2.944868963949185847e+00	-2.824810201585584157e-02	-2.895287460172997207e-01
8.321714860356994905e+03	2.937376982088805377e+00	-2.837203725305247407e-02	-2.895014739438311335e-01
8.321718327522941763e+03	2.929802030417001824e+00	-2.849817200187557478e-02	-2.894742746988517301e-01
8.321721794688888622e+03	2.922144488490673542e+00	-2.862653485239427531e-02	-2.894471479010420900e-01
8.321725261854835480e+03	2.914404739206278627e+00	-2.875715504664924302e-02	-2.894200931720343761e-01
8.321728729020782339e+03	2.906583168758648306e+00	-2.889006249295998988e-02	-2.893931101363841907e-01
8.321732196186729198e+03	2.898680166599642671e+00	-2.902528778064811937e-02	-2.893661984215422645e-01
8.321735663352674237e+03	2.890696125396637228e+00	-2.916286219519027140e-02	-2.893393576578276449e-01
8.321739130518621096e+03	2.882631440990888194e+00	-2.930281773381239810e-02	-2.893125874784001628e-01
8.321742597684567954e+03	2.874486512355777457e+00	-2.944518712154025816e-02	-2.892858875192338419e-01
8.321746064850514813e+03	2.866261741554912312e+00	-2.959000382772003848e-02	-2.892592574190894772e-01
8.321749532016461671e+03	2.857957533700162145e+00	-2.973730208302321695e-02	-2.892326968194894321e-01
8.321752999182408530e+03	2.849574296909556104e+00	-2.988711689695196932e-02	-2.892062053646898834e-01
8.321756466348355389e+03	2.841112442265093296e+00	-3.003948407586057995e-02	-2.891797827016570621e-01
8.321759933514302247e+03	2.832572383770504576e+00	-3.019444024150849670e-02	-2.891534284800403309e-01
8.321763400680249106e+03	2.823954538308931728e+00	-3.035202285016299836e-02	-2.891271423521467598e-01
8.321766867846195964e+03	2.815259325600532048e+00	-3.051227021226884592e-02	-2.891009239729172009e-01
8.321770335012142823e+03	2.806487168160048284e+00	-3.067522151270317757e-02	-2.890747729999003646e-01
8.321773802178089682e+03	2.797638491254338611e+00	-3.084091683163438583e-02	-2.890486890932292829e-01
8.321777269344034721e+03	2.788713722859872401e+00	-3.100939716600516899e-02	-2.890226719155962742e-01
8.321780736509981580e+03	2.779713293620214021e+00	-3.118070445165957785e-02	-2.889967211322294061e-01
8.321784203675928438e+03	2.770637636803487069e+00	-3.135488158613590481e-02	-2.889708364108686256e-01
8.321787670841875297e+03	2.761487188259841741e+00	-3.153197245214693634e-02	-2.889450174217424450e-01
8.321791138007822155e+03	2.752262386378919512e+00	-3.171202194177102224e-02	-2.889192638375439603e-01
8.321794605173769014e+03	2.742963672047360912e+00	-3.189507598137642647e-02	-2.888935753334088696e-01
8.321798072339715873e+03	2.733591488606312847e+00	-3.208118155730536880e-02	-2.888679515868917136e-01
8.321801539505662731e+03	2.724146281808993653e+00	-3.227038674234161686e-02	-2.888423922779442266e-01
8.321805006671609590e+03	2.714628499778300341e+00	-3.246274072298928337e-02	-2.888168970888919662e-01
8.321808473837556448e+03	2.705038592964465138e+00	-3.265829382758998062e-02	-2.887914657044137190e-01
8.321811941003503307e+03	2.695377014102783964e+00	-3.285709755530706599e-02	-2.887660978115176857e-01
8.321815408169450166e+03	2.685644218171415964e+00	-3.305920460600674654e-02	-2.887407930995219418e-01
8.321818875335395205e+03	2.675840662349272758e+00	-3.326466891106698992e-02	-2.887155512600310669e-01
8.321822342501342064e+03	2.665966805973990716e+00	-3.347354566514636892e-02	-2.886903719869164386e-01
8.321825809667288922e+03	2.656023110500014717e+00	-3.368589135894631270e-02	-2.886652549762944719e-01
8.321829276833235781e+03	2.646010039456790253e+00	-3.390176381300136904e-02	-2.886401999265060803e-01
8.321832743999182640e+03	2.635928058407072783e+00	-3.412122221253394844e-02	-2.886152065380963028e-01
8.321836211165129498e+03	2.625777634905370750e+00	-3.434432714341051351e-02	-2.885902745137935432e-01
8.321839678331076357e+03	2.615559238456526270e+00	-3.457114062923903608e-02	-2.885654035584898636e-01
8.321843145497023215e+03	2.605273340474438371e+00	-3.480172616964786331e-02	-2.885405933792205557e-01
8.321846612662970074e+03	2.594920414240950102e+00	-3.503614877978822317e-02	-2.885158436851453234e-01
8.321850079828916932e+03	2.584500934864884414e+00	-3.527447503110507643e-02	-2.884911541875275209e-01
8.321853546994863791e+03	2.574015379241267887e+00	-3.551677309342127914e-02	-2.884665245997163341e-01
8.321857014160810650e+03	2.563464226010737423e+00	-3.576311277838306601e-02	-2.884419546371259080e-01
8.321860481326755689e+03	2.552847955519121914e+00	-3.601356558431680760e-02	-2.884174440172181386e-01
8.321863948492702548e+03	2.542167049777229071e+00	-3.626820474254852100e-02	-2.883929924594824667e-01
8.321867415658649406e+03	2.531421992420844980e+00	-3.652710526523950813e-02	-2.883685996854186140e-01
8.321870882824596265e+03	2.520613268670933937e+00	-3.679034399479536033e-02	-2.883442654185172094e-01
8.321874349990543124e+03	2.509741365294075877e+00	-3.705799965490542275e-02	-2.883199893842423589e-01
