# time(us)	tip(nm)	Fts(nN)	Xb(nm)
8.321201719796881662e+03	3.854493126346041798e+00	-1.774353353132484407e-02	-2.807386577627267177e-01
8.321205186962828520e+03	3.863721029410192020e+00	-1.766849914170743469e-02	-2.806944142775271156e-01
8.321208654128775379e+03	3.872848427397885818e+00	-1.759475035357505046e-02	-2.806503597314368714e-01
8.321212121294722238e+03	3.881874882230757162e+00	-1.752227152299204102e-02	-2.806064926807338988e-01
8.321215588460669096e+03	3.890799960081520847e+00	-1.745104734531309487e-02	-2.805628116962082808e-01
8.321219055626615955e+03	3.899623231416050828e+00	-1.738106284838285623e-02	-2.805193153629829128e-01
8.321222522792562813e+03	3.908344271035175677e+00	-1.731230338591980764e-02	-2.804760022803378661e-01
8.321225989958509672e+03	3.916962658116211138e+00	-1.724475463107901993e-02	-2.804328710615369702e-01
8.321229457124456530e+03	3.925477976254200474e+00	-1.717840257018913436e-02	-2.803899203336573387e-01
8.321232924290403389e+03	3.933889813502843502e+00	-1.711323349665877513e-02	-2.803471487374218363e-01
8.321236391456348429e+03	3.942197762415125872e+00	-1.704923400504771216e-02	-2.803045549270343773e-01
8.321239858622295287e+03	3.950401420083627269e+00	-1.698639098529852384e-02	-2.802621375700164452e-01
8.321243325788242146e+03	3.958500388180502760e+00	-1.692469161712410394e-02	-2.802198953470479426e-01
8.321246792954189004e+03	3.966494272997137305e+00	-1.686412336454731417e-02	-2.801778269518098163e-01
8.321250260120135863e+03	3.974382685483423661e+00	-1.680467397058850454e-02	-2.801359310908283495e-01
8.321253727286082722e+03	3.982165241286721891e+00	-1.674633145209701232e-02	-2.800942064833227829e-01
8.321257194452029580e+03	3.989841560790444053e+00	-1.668908409472283361e-02	-2.800526518610551574e-01
8.321260661617976439e+03	3.997411269152246760e+00	-1.663292044802511249e-02	-2.800112659681819327e-01
8.321264128783923297e+03	4.004873996341870246e+00	-1.657782932071357254e-02	-2.799700475611081041e-01
8.321267595949870156e+03	4.012229377178575973e+00	-1.652379977601971250e-02	-2.799289954083439835e-01
8.321271063115817014e+03	4.019477051368196108e+00	-1.647082112719426908e-02	-2.798881082903627027e-01
8.321274530281763873e+03	4.026616663539750895e+00	-1.641888293312810179e-02	-2.798473849994617679e-01
8.321277997447708913e+03	4.033647863281675683e+00	-1.636797499409307216e-02	-2.798068243396250043e-01
8.321281464613655771e+03	4.040570305177615396e+00	-1.631808734760008608e-02	-2.797664251263872748e-01
8.321284931779602630e+03	4.047383648841793580e+00	-1.626921026437132614e-02	-2.797261861867010313e-01
8.321288398945549488e+03	4.054087558953924919e+00	-1.622133424442410640e-02	-2.796861063588051977e-01
8.321291866111496347e+03	4.060681705293695209e+00	-1.617445001326330359e-02	-2.796461844920945516e-01
8.321295333277443206e+03	4.067165762774788362e+00	-1.612854851818005739e-02	-2.796064194469933262e-01
8.321298800443390064e+03	4.073539411478426686e+00	-1.608362092465407539e-02	-2.795668100948277557e-01
8.321302267609336923e+03	4.079802336686471520e+00	-1.603965861285698916e-02	-2.795273553177034520e-01
8.321305734775283781e+03	4.085954228914020270e+00	-1.599665317425462766e-02	-2.794880540083815590e-01
8.321309201941230640e+03	4.091994783941532710e+00	-1.595459640830577258e-02	-2.794489050701590149e-01
8.321312669107177499e+03	4.097923702846451910e+00	-1.591348031925523057e-02	-2.794099074167488705e-01
8.321316136273124357e+03	4.103740692034317128e+00	-1.587329711301906088e-02	-2.793710599721637711e-01
8.321319603439069397e+03	4.109445463269393528e+00	-1.583403919415986294e-02	-2.793323616705988277e-01
8.321323070605016255e+03	4.115037733704764555e+00	-1.579569916295021220e-02	-2.792938114563191521e-01
8.321326537770963114e+03	4.120517225911914494e+00	-1.575826981252214168e-02	-2.792554082835456142e-01
8.321330004936909972e+03	4.125883667909753250e+00	-1.572174412610114966e-02	-2.792171511163451525e-01
8.321333472102856831e+03	4.131136793193140200e+00	-1.568611527432249922e-02	-2.791790389285199736e-01
8.321336939268803690e+03	4.136276340760854708e+00	-1.565137661262827606e-02	-2.791410707035005268e-01
8.321340406434750548e+03	4.141302055142992877e+00	-1.561752167874354280e-02	-2.791032454342383673e-01
8.321343873600697407e+03	4.146213686427858924e+00	-1.558454419022991741e-02	-2.790655621231004080e-01
8.321347340766644265e+03	4.151010990288224178e+00	-1.555243804211504759e-02	-2.790280197817662788e-01
8.321350807932591124e+03	4.155693728007090471e+00	-1.552119730459636596e-02	-2.789906174311249654e-01
8.321354275098537983e+03	4.160261666502828248e+00	-1.549081622081770193e-02	-2.789533541011739448e-01
8.321357742264484841e+03	4.164714578353745367e+00	-1.546128920471756540e-02	-2.789162288309194326e-01
8.321361209430429881e+03	4.169052241822082117e+00	-1.543261083894726521e-02	-2.788792406682782388e-01
8.321364676596376739e+03	4.173274440877409397e+00	-1.540477587285800018e-02	-2.788423886699799015e-01
8.321368143762323598e+03	4.177380965219406939e+00	-1.537777922055548648e-02	-2.788056719014713192e-01
8.321371610928270456e+03	4.181371610300091746e+00	-1.535161595902071949e-02	-2.787690894368218264e-01
8.321375078094217315e+03	4.185246177345375962e+00	-1.532628132629616433e-02	-2.787326403586298795e-01
8.321378545260164174e+03	4.189004473376066962e+00	-1.530177071973565922e-02	-2.786963237579306862e-01
8.321382012426111032e+03	4.192646311228203970e+00	-1.527807969431749235e-02	-2.786601387341048897e-01
8.321385479592057891e+03	4.196171509572802272e+00	-1.525520396101929209e-02	-2.786240843947889179e-01
8.321388946758004749e+03	4.199579892934953484e+00	-1.523313938525378171e-02	-2.785881598557862215e-01
8.321392413923951608e+03	4.202871291712306778e+00	-1.521188198536449487e-02	-2.785523642409795109e-01
8.321395881089898467e+03	4.206045542192908826e+00	-1.519142793118041616e-02	-2.785166966822438805e-01
8.321399348255845325e+03	4.209102486572410484e+00	-1.517177354262887884e-02	-2.784811563193619333e-01
8.321402815421790365e+03	4.212041972970610892e+00	-1.515291528840561654e-02	-2.784457422999384590e-01
8.321406282587737223e+03	4.214863855447370966e+00	-1.513484978470144154e-02	-2.784104537793181122e-01
8.321409749753684082e+03	4.217567994017863420e+00	-1.511757379398458168e-02	-2.783752899205023112e-01
8.321413216919630941e+03	4.220154254667179750e+00	-1.510108422383779452e-02	-2.783402498940678593e-01
8.321416684085577799e+03	4.222622509364269305e+00	-1.508537812585010289e-02	-2.783053328780873414e-01
8.321420151251524658e+03	4.224972636075214005e+00	-1.507045269456181238e-02	-2.782705380580490218e-01
8.321423618417471516e+03	4.227204518775857345e+00	-1.505630526646270506e-02	-2.782358646267787394e-01
8.321427085583418375e+03	4.229318047463742403e+00	-1.504293331904242581e-02	-2.782013117843626371e-01
8.321430552749365233e+03	4.231313118169395260e+00	-1.503033446989287918e-02	-2.781668787380703889e-01
8.321434019915312092e+03	4.233189632966922744e+00	-1.501850647586175543e-02	-2.781325647022800940e-01
8.321437487081258951e+03	4.234947499983937824e+00	-1.500744723225691177e-02	-2.780983688984028923e-01
8.321440954247205809e+03	4.236586633410823310e+00	-1.499715477210091831e-02	-2.780642905548098565e-01
8.321444421413150849e+03	4.238106953509292119e+00	-1.498762726543562650e-02	-2.780303289067588834e-01
8.321447888579097707e+03	4.239508386620279623e+00	-1.497886301867606441e-02	-2.779964831963230854e-01
8.321451355745044566e+03	4.240790865171146784e+00	-1.497086047401341088e-02	-2.779627526723187914e-01
8.321454822910991425e+03	4.241954327682194936e+00	-1.496361820886681418e-02	-2.779291365902361033e-01
8.321458290076938283e+03	4.242998718772510003e+00	-1.495713493538334757e-02	-2.778956342121688405e-01
8.321461757242885142e+03	4.243923989165097943e+00	-1.495140949998631334e-02	-2.778622448067466499e-01
8.321465224408832000e+03	4.244730095691349625e+00	-1.494644088297119276e-02	-2.778289676490663385e-01
8.321468691574778859e+03	4.245417001294811143e+00	-1.494222819814927661e-02	-2.777958020206253154e-01
8.321472158740725718e+03	4.245984675034238265e+00	-1.493877069253875429e-02	-2.777627472092552008e-01
8.321475625906672576e+03	4.246433092085995398e+00	-1.493606774610292502e-02	-2.777298025090566558e-01
8.321479093072619435e+03	4.246762233745747572e+00	-1.493411887153544768e-02	-2.776969672203343231e-01
8.321482560238566293e+03	4.246972087429456977e+00	-1.493292371409259654e-02	-2.776642406495328230e-01
8.321486027404511333e+03	4.247062646673700925e+00	-1.493248205147226781e-02	-2.776316221091741920e-01
8.321489494570458191e+03	4.247033911135263295e+00	-1.493279379373997628e-02	-2.775991109177943783e-01
8.321492961736405050e+03	4.246885886590084702e+00	-1.493385898330130968e-02	-2.775667063998826234e-01
8.321496428902351909e+03	4.246618584931484364e+00	-1.493567779492121009e-02	-2.775344078858195118e-01
8.321499896068298767e+03	4.246232024167696295e+00	-1.493825053579011554e-02	-2.775022147118170746e-01
8.321503363234245626e+03	4.245726228418721604e+00	-1.494157764563675168e-02	-2.774701262198590590e-01
8.321506830400192484e+03	4.245101227912506658e+00	-1.494565969688768127e-02	-2.774381417576420317e-01
8.321510297566139343e+03	4.244357058980397390e+00	-1.495049739487402940e-02	-2.774062606785169804e-01
8.321513764732086202e+03	4.243493764051931016e+00	-1.495609157808519551e-02	-2.773744823414319161e-01
8.321517231898033060e+03	4.242511391648936758e+00	-1.496244321846967353e-02	-2.773428061108743070e-01
8.321520699063979919e+03	4.241409996378955327e+00	-1.496955342178347276e-02	-2.773112313568157905e-01
8.321524166229926777e+03	4.240189638927974514e+00	-1.497742342798595236e-02	-2.772797574546553845e-01
8.321527633395871817e+03	4.238850386052471109e+00	-1.498605461168373357e-02	-2.772483837851650867e-01
8.321531100561818675e+03	4.237392310570816889e+00	-1.499544848262247994e-02	-2.772171097344355850e-01
8.321534567727765534e+03	4.235815491353958073e+00	-1.500560668622724116e-02	-2.771859346938217450e-01
8.321538034893712393e+03	4.234120013315431308e+00	-1.501653100419173513e-02	-2.771548580598900413e-01
8.321541502059659251e+03	4.232305967400736613e+00	-1.502822335511632725e-02	-2.771238792343657109e-01
8.321544969225606110e+03	4.230373450576013994e+00	-1.504068579519580139e-02	-2.770929976240808501e-01
8.321548436391552968e+03	4.228322565816069911e+00	-1.505392051895685680e-02	-2.770622126409223451e-01
8.321551903557499827e+03	4.226153422091744716e+00	-1.506792986004598135e-02	-2.770315237017823007e-01
8.321555370723446686e+03	4.223866134356589974e+00	-1.508271629206823887e-02	-2.770009302285064701e-01
8.321558837889393544e+03	4.221460823532918738e+00	-1.509828242947736793e-02	-2.769704316478448503e-01
8.321562305055340403e+03	4.218937616497206555e+00	-1.511463102851752852e-02	-2.769400273914030541e-01
8.321565772221287261e+03	4.216296646064821019e+00	-1.513176498821772534e-02	-2.769097168955931276e-01
8.321569239387232301e+03	4.213538050974132254e+00	-1.514968735143914537e-02	-2.768794996015854770e-01
8.321572706553179160e+03	4.210661975869952833e+00	-1.516840130597620767e-02	-2.768493749552615180e-01
8.321576173719126018e+03	4.207668571286362180e+00	-1.518791018571196381e-02	-2.768193424071663244e-01
8.321579640885072877e+03	4.204557993628894152e+00	-1.520821747182850639e-02	-2.767894014124625546e-01
8.321583108051019735e+03	4.201330405156092240e+00	-1.522932679407320092e-02	-2.767595514308839877e-01
8.321586575216966594e+03	4.197985973960438599e+00	-1.525124193208150097e-02	-2.767297919266901163e-01
8.321590042382913452e+03	4.194524873948681787e+00	-1.527396681675700744e-02	-2.767001223686213485e-01
8.321593509548860311e+03	4.190947284821530339e+00	-1.529750553170989430e-02	-2.766705422298543771e-01
8.321596976714807170e+03	4.187253392052741496e+00	-1.532186231475446067e-02	-2.766410509879579371e-01
8.321600443880754028e+03	4.183443386867613967e+00	-1.534704155946659508e-02	-2.766116481248495074e-01
8.321603911046700887e+03	4.179517466220866950e+00	-1.537304781680240602e-02	-2.765823331267521223e-01
8.321607378212647745e+03	4.175475832773952511e+00	-1.539988579677869888e-02	-2.765531054841519620e-01
8.321610845378592785e+03	4.171318694871744448e+00	-1.542756037021665409e-02	-2.765239646917558303e-01
8.321614312544539644e+03	4.167046266518680930e+00	-1.545607657054957548e-02	-2.764949102484498544e-01
8.321617779710486502e+03	4.162658767354296963e+00	-1.548543959569606727e-02	-2.764659416572579631e-01
8.321621246876433361e+03	4.158156422628217719e+00	-1.551565480999941848e-02	-2.764370584253012519e-01
8.321624714042380219e+03	4.153539463174582558e+00	-1.554672774623490697e-02	-2.764082600637576270e-01
8.321628181208327078e+03	4.148808125385871293e+00	-1.557866410768609516e-02	-2.763795460878220034e-01
8.321631648374273936e+03	4.143962651186231305e+00	-1.561146977029127456e-02	-2.763509160166663925e-01
8.321635115540220795e+03	4.139003288004232672e+00	-1.564515078486167221e-02	-2.763223693734012110e-01
8.321638582706167654e+03	4.133930288745100157e+00	-1.567971337937260415e-02	-2.762939056850369779e-01
8.321642049872114512e+03	4.128743911762394525e+00	-1.571516396132937102e-02	-2.762655244824451795e-01
8.321645517038061371e+03	4.123444420829177837e+00	-1.575150912020916241e-02	-2.762372253003212985e-01
8.321648984204008229e+03	4.118032085108662699e+00	-1.578875562998061782e-02	-2.762090076771471225e-01
8.321652451369953269e+03	4.112507179124354373e+00	-1.582691045170265404e-02	-2.761808711551536621e-01
8.321655918535900128e+03	4.106869982729675073e+00	-1.586598073620441168e-02	-2.761528152802845693e-01
8.321659385701846986e+03	4.101120781077103317e+00	-1.590597382684793074e-02	-2.761248396021600549e-01
8.321662852867793845e+03	4.095259864586823007e+00	-1.594689726237530358e-02	-2.760969436740409733e-01
8.321666320033740703e+03	4.089287528914892889e+00	-1.598875877984247060e-02	-2.760691270527934615e-01
8.321669787199687562e+03	4.083204074920935511e+00	-1.603156631764126108e-02	-2.760413892988535789e-01
8.321673254365634421e+03	4.077009808635361665e+00	-1.607532801861205618e-02	-2.760137299761932228e-01
8.321676721531581279e+03	4.070705041226136522e+00	-1.612005223324881886e-02	-2.759861486522852125e-01
8.321680188697528138e+03	4.064290088965118564e+00	-1.616574752299880860e-02	-2.759586448980694828e-01
8.321683655863474996e+03	4.057765273193906452e+00	-1.621242266365935381e-02	-2.759312182879196662e-01
8.321687123029421855e+03	4.051130920289296888e+00	-1.626008664887371169e-02	-2.759038683996098973e-01
8.321690590195368713e+03	4.044387361628293043e+00	-1.630874869372863148e-02	-2.758765948142813951e-01
8.321694057361313753e+03	4.037534933552701766e+00	-1.635841823845592471e-02	-2.758493971164107661e-01
8.321697524527260612e+03	4.030573977333323121e+00	-1.640910495224067248e-02	-2.758222748937769753e-01
8.321700991693207470e+03	4.023504839133735800e+00	-1.646081873713877916e-02	-2.757952277374303152e-01
8.321704458859154329e+03	4.016327869973691733e+00	-1.651356973210641940e-02	-2.757682552416599875e-01
8.321707926025101187e+03	4.009043425692125240e+00	-1.656736831714441735e-02	-2.757413570039637385e-01
8.321711393191048046e+03	4.001651866909793576e+00	-1.662222511756022633e-02	-2.757145326250165507e-01
8.321714860356994905e+03	3.994153558991542674e+00	-1.667815100835077710e-02	-2.756877817086400562e-01
8.321718327522941763e+03	3.986548872008211841e+00	-1.673515711870917494e-02	-2.756611038617728382e-01
8.321721794688888622e+03	3.978838180698199611e+00	-1.679325483665848259e-02	-2.756344986944398445e-01
8.321725261854835480e+03	3.971021864428691650e+00	-1.685245581381582258e-02	-2.756079658197234106e-01
8.321728729020782339e+03	3.963100307156542712e+00	-1.691277197029053894e-02	-2.755815048537336720e-01
8.321732196186729198e+03	3.955073897388862392e+00	-1.697421549971950619e-02	-2.755551154155795324e-01
8.321735663352674237e+03	3.946943028143256704e+00	-1.703679887444381480e-02	-2.755287971273406300e-01
8.321739130518621096e+03	3.938708096907793887e+00	-1.710053485083024016e-02	-2.755025496140379726e-01
8.321742597684567954e+03	3.930369505600651792e+00	-1.716543647474149531e-02	-2.754763725036066258e-01
8.321746064850514813e+03	3.921927660529504145e+00	-1.723151708715948624e-02	-2.754502654268681239e-01
8.321749532016461671e+03	3.913382972350613276e+00	-1.729879032996557708e-02	-2.754242280175021040e-01
8.321752999182408530e+03	3.904735856027671925e+00	-1.736727015188238576e-02	-2.753982599120198826e-01
8.321756466348355389e+03	3.895986730790361285e+00	-1.743697081458151291e-02	-2.753723607497371995e-01
8.321759933514302247e+03	3.887136020092698985e+00	-1.750790689896183916e-02	-2.753465301727479053e-01
8.321763400680249106e+03	3.878184151571123728e+00	-1.758009331160312327e-02	-2.753207678258975388e-01
8.321766867846195964e+03	3.869131557002363664e+00	-1.765354529140012937e-02	-2.752950733567566255e-01
8.321770335012142823e+03	3.859978672261068944e+00	-1.772827841638221005e-02	-2.752694464155959753e-01
8.321773802178089682e+03	3.850725937277257760e+00	-1.780430861072371598e-02	-2.752438866553600927e-01
8.321777269344034721e+03	3.841373795993544338e+00	-1.788165215195060970e-02	-2.752183937316428630e-01
8.321780736509981580e+03	3.831922696322184851e+00	-1.796032567834932731e-02	-2.751929673026620171e-01
8.321784203675928438e+03	3.822373090101946147e+00	-1.804034619658330743e-02	-2.751676070292340959e-01
8.321787670841875297e+03	3.812725433054796831e+00	-1.812173108952360237e-02	-2.751423125747507470e-01
8.321791138007822155e+03	3.802980184742446479e+00	-1.820449812429974362e-02	-2.751170836051538560e-01
8.321794605173769014e+03	3.793137808522720977e+00	-1.828866546057749537e-02	-2.750919197889119538e-01
8.321798072339715873e+03	3.783198771505807745e+00	-1.837425165907000807e-02	-2.750668207969962364e-01
8.321801539505662731e+03	3.773163544510353073e+00	-1.846127569028975512e-02	-2.750417863028571386e-01
8.321805006671609590e+03	3.763032602019449779e+00	-1.854975694354796950e-02	-2.750168159824012415e-01
8.321808473837556448e+03	3.752806422136523601e+00	-1.863971523620940388e-02	-2.749919095139680691e-01
8.321811941003503307e+03	3.742485486541086370e+00	-1.873117082321019977e-02	-2.749670665783075507e-01
8.321815408169450166e+03	3.732070280444421240e+00	-1.882414440684655743e-02	-2.749422868585570390e-01
8.321818875335395205e+03	3.721561292545177757e+00	-1.891865714684292168e-02	-2.749175700402196054e-01
8.321822342501342064e+03	3.710959014984882121e+00	-1.901473067070792028e-02	-2.748929158111416693e-01
8.321825809667288922e+03	3.700263943303383485e+00	-1.911238708438743605e-02	-2.748683238614912372e-01
8.321829276833235781e+03	3.689476576394265184e+00	-1.921164898322324371e-02	-2.748437938837358097e-01
8.321832743999182640e+03	3.678597416460190228e+00	-1.931253946322769241e-02	-2.748193255726219530e-01
8.321836211165129498e+03	3.667626968968221046e+00	-1.941508213268362468e-02	-2.747949186251534837e-01
8.321839678331076357e+03	3.656565742605113911e+00	-1.951930112408014825e-02	-2.747705727405700959e-01
8.321843145497023215e+03	3.645414249232577841e+00	-1.962522110639493972e-02	-2.747462876203278781e-01
8.321846612662970074e+03	3.634173003842557481e+00	-1.973286729773379364e-02	-2.747220629680776627e-01
8.321850079828916932e+03	3.622842524512494666e+00	-1.984226547833903287e-02	-2.746978984896449316e-01
8.321853546994863791e+03	3.611423332360604199e+00	-1.995344200397876355e-02	-2.746737938930102207e-01
8.321857014160810650e+03	3.599915951501175826e+00	-2.006642381972897210e-02	-2.746497488882888027e-01
8.321860481326755689e+03	3.588320908999902858e+00	-2.018123847416135319e-02	-2.746257631877108696e-01
8.321863948492702548e+03	3.576638734829264532e+00	-2.029791413394988267e-02	-2.746018365056023813e-01
8.321867415658649406e+03	3.564869961823919908e+00	-2.041647959891040517e-02	-2.745779685583655261e-01
8.321870882824596265e+03	3.553015125636197258e+00	-2.053696431748652795e-02	-2.745541590644599572e-01
8.321874349990543124e+03	3.541074764691636290e+00	-2.065939840269731889e-02	-2.745304077443831980e-01
